3.000000 5469.000000
3.015329 5157.000000
3.030659 5067.000000
3.045988 4903.000000
3.061318 4582.000000
3.076647 4435.000000
3.091976 4212.000000
3.107306 4237.000000
3.122635 4143.000000
3.137965 3886.000000
3.153294 3762.000000
3.168623 3795.000000
3.183953 3595.000000
3.199282 3710.000000
3.214611 3542.000000
3.229941 3465.000000
3.245270 3569.000000
3.260600 3372.000000
3.275929 3442.000000
3.291258 3399.000000
3.306588 3350.000000
3.321917 3255.000000
3.337247 3280.000000
3.352576 3333.000000
3.367905 3268.000000
3.383235 3270.000000
3.398564 3237.000000
3.413894 3151.000000
3.429223 3214.000000
3.444552 3207.000000
3.459882 3214.000000
3.475211 3172.000000
3.490541 3214.000000
3.505870 3227.000000
3.521199 3213.000000
3.536529 3256.000000
3.551858 3276.000000
3.567188 3320.000000
3.582517 3482.000000
3.597846 3545.000000
3.613176 3686.000000
3.628505 3878.000000
3.643834 3993.000000
3.659164 4040.000000
3.674493 3939.000000
3.689823 3839.000000
3.705152 3760.000000
3.720481 3773.000000
3.735811 3464.000000
3.751140 3282.000000
3.766470 3038.000000
3.781799 2860.000000
3.797128 2739.000000
3.812458 2616.000000
3.827787 2601.000000
3.843117 2524.000000
3.858446 2548.000000
3.873775 2540.000000
3.889105 2405.000000
3.904434 2480.000000
3.919764 2427.000000
3.935093 2473.000000
3.950422 2282.000000
3.965752 2387.000000
3.981081 2267.000000
3.996411 2299.000000
4.011740 2402.000000
4.027069 2354.000000
4.042399 2319.000000
4.057728 2236.000000
4.073057 2311.000000
4.088387 2197.000000
4.103716 2180.000000
4.119046 2190.000000
4.134375 2215.000000
4.149704 2175.000000
4.165034 2142.000000
4.180363 2133.000000
4.195693 2108.000000
4.211022 2129.000000
4.226351 2011.000000
4.241681 2106.000000
4.257010 2104.000000
4.272340 2036.000000
4.287669 1998.000000
4.302998 1985.000000
4.318328 1929.000000
4.333657 2003.000000
4.348987 1980.000000
4.364316 1895.000000
4.379645 1863.000000
4.394975 1982.000000
4.410304 1923.000000
4.425634 1961.000000
4.440963 1778.000000
4.456292 1866.000000
4.471622 1861.000000
4.486951 1766.000000
4.502280 1800.000000
4.517610 1835.000000
4.532939 1755.000000
4.548269 1764.000000
4.563598 1853.000000
4.578927 1802.000000
4.594257 1796.000000
4.609586 1684.000000
4.624916 1684.000000
4.640245 1767.000000
4.655574 1810.000000
4.670904 1645.000000
4.686233 1706.000000
4.701563 1742.000000
4.716892 1686.000000
4.732221 1707.000000
4.747551 1647.000000
4.762880 1544.000000
4.778210 1613.000000
4.793539 1643.000000
4.808868 1592.000000
4.824198 1675.000000
4.839527 1588.000000
4.854857 1576.000000
4.870186 1660.000000
4.885515 1535.000000
4.900845 1537.000000
4.916174 1584.000000
4.931503 1600.000000
4.946833 1571.000000
4.962162 1501.000000
4.977492 1531.000000
4.992821 1569.000000
5.008150 1475.000000
5.023480 1511.000000
5.038809 1538.000000
5.054139 1528.000000
5.069468 1520.000000
5.084797 1440.000000
5.100127 1481.000000
5.115456 1383.000000
5.130786 1450.000000
5.146115 1414.000000
5.161444 1454.000000
5.176774 1395.000000
5.192103 1440.000000
5.207433 1384.000000
5.222762 1445.000000
5.238091 1421.000000
5.253421 1473.000000
5.268750 1353.000000
5.284080 1368.000000
5.299409 1424.000000
5.314738 1478.000000
5.330068 1419.000000
5.345397 1302.000000
5.360726 1359.000000
5.376056 1350.000000
5.391385 1375.000000
5.406715 1373.000000
5.422044 1371.000000
5.437373 1303.000000
5.452703 1385.000000
5.468032 1297.000000
5.483362 1317.000000
5.498691 1296.000000
5.514020 1313.000000
5.529350 1264.000000
5.544679 1332.000000
5.560009 1309.000000
5.575338 1302.000000
5.590667 1308.000000
5.605997 1259.000000
5.621326 1255.000000
5.636656 1319.000000
5.651985 1281.000000
5.667314 1266.000000
5.682644 1261.000000
5.697973 1242.000000
5.713303 1241.000000
5.728632 1248.000000
5.743961 1198.000000
5.759291 1235.000000
5.774620 1208.000000
5.789949 1248.000000
5.805279 1220.000000
5.820608 1220.000000
5.835938 1255.000000
5.851267 1209.000000
5.866596 1130.000000
5.881926 1155.000000
5.897255 1237.000000
5.912585 1225.000000
5.927914 1188.000000
5.943243 1192.000000
5.958573 1208.000000
5.973902 1197.000000
5.989232 1155.000000
6.004561 1213.000000
6.019890 1208.000000
6.035220 1192.000000
6.050549 1197.000000
6.065879 1131.000000
6.081208 1177.000000
6.096537 1188.000000
6.111867 1167.000000
6.127196 1149.000000
6.142526 1193.000000
6.157855 1096.000000
6.173184 1115.000000
6.188514 1151.000000
6.203843 1176.000000
6.219172 1215.000000
6.234502 1171.000000
6.249831 1149.000000
6.265161 1152.000000
6.280490 1121.000000
6.295819 1115.000000
6.311149 1096.000000
6.326478 1045.000000
6.341808 1092.000000
6.357137 1141.000000
6.372466 1107.000000
6.387796 1100.000000
6.403125 1083.000000
6.418455 1112.000000
6.433784 1105.000000
6.449113 1068.000000
6.464443 1110.000000
6.479772 1082.000000
6.495102 1110.000000
6.510431 1080.000000
6.525760 1095.000000
6.541090 1075.000000
6.556419 1049.000000
6.571749 1104.000000
6.587078 1098.000000
6.602407 1091.000000
6.617737 1055.000000
6.633066 1118.000000
6.648395 1081.000000
6.663725 1054.000000
6.679054 1040.000000
6.694384 1057.000000
6.709713 1074.000000
6.725042 1069.000000
6.740372 996.000000
6.755701 994.000000
6.771031 1029.000000
6.786360 1100.000000
6.801689 1046.000000
6.817019 1074.000000
6.832348 1044.000000
6.847678 1013.000000
6.863007 1085.000000
6.878336 1012.000000
6.893666 1039.000000
6.908995 1036.000000
6.924325 1031.000000
6.939654 1052.000000
6.954983 1018.000000
6.970313 968.000000
6.985642 1009.000000
7.000972 952.000000
7.016301 1020.000000
7.031630 1004.000000
7.046960 1018.000000
7.062289 976.000000
7.077618 945.000000
7.092948 1015.000000
7.108277 972.000000
7.123607 982.000000
7.138936 989.000000
7.154265 1013.000000
7.169595 949.000000
7.184924 1014.000000
7.200254 924.000000
7.215583 972.000000
7.230912 984.000000
7.246242 943.000000
7.261571 919.000000
7.276901 932.000000
7.292230 922.000000
7.307559 974.000000
7.322889 894.000000
7.338218 975.000000
7.353548 942.000000
7.368877 904.000000
7.384206 1013.000000
7.399536 912.000000
7.414865 949.000000
7.430195 946.000000
7.445524 948.000000
7.460853 1008.000000
7.476183 923.000000
7.491512 875.000000
7.506841 918.000000
7.522171 948.000000
7.537500 869.000000
7.552830 961.000000
7.568159 895.000000
7.583488 892.000000
7.598818 946.000000
7.614147 909.000000
7.629477 941.000000
7.644806 922.000000
7.660135 928.000000
7.675465 965.000000
7.690794 970.000000
7.706124 919.000000
7.721453 898.000000
7.736782 862.000000
7.752112 921.000000
7.767441 878.000000
7.782771 903.000000
7.798100 915.000000
7.813429 946.000000
7.828759 872.000000
7.844088 872.000000
7.859418 877.000000
7.874747 905.000000
7.890076 889.000000
7.905406 895.000000
7.920735 905.000000
7.936064 898.000000
7.951394 900.000000
7.966723 884.000000
7.982053 891.000000
7.997382 859.000000
8.012711 927.000000
8.028041 855.000000
8.043370 912.000000
8.058700 867.000000
8.074029 859.000000
8.089358 864.000000
8.104688 907.000000
8.120017 884.000000
8.135347 942.000000
8.150676 852.000000
8.166005 842.000000
8.181335 895.000000
8.196664 902.000000
8.211994 913.000000
8.227323 880.000000
8.242652 863.000000
8.257982 838.000000
8.273311 852.000000
8.288641 837.000000
8.303970 826.000000
8.319299 846.000000
8.334629 883.000000
8.349958 878.000000
8.365287 868.000000
8.380617 862.000000
8.395946 840.000000
8.411276 900.000000
8.426605 853.000000
8.441934 847.000000
8.457264 853.000000
8.472593 843.000000
8.487923 868.000000
8.503252 919.000000
8.518581 918.000000
8.533911 846.000000
8.549240 853.000000
8.564570 859.000000
8.579899 850.000000
8.595228 846.000000
8.610558 909.000000
8.625887 846.000000
8.641217 935.000000
8.656546 854.000000
8.671875 891.000000
8.687205 878.000000
8.702534 812.000000
8.717864 853.000000
8.733193 894.000000
8.748522 885.000000
8.763852 862.000000
8.779181 857.000000
8.794510 910.000000
8.809840 884.000000
8.825169 869.000000
8.840499 891.000000
8.855828 867.000000
8.871157 866.000000
8.886487 799.000000
8.901816 862.000000
8.917146 844.000000
8.932475 800.000000
8.947804 823.000000
8.963134 786.000000
8.978463 798.000000
8.993793 832.000000
9.009122 851.000000
9.024451 852.000000
9.039781 809.000000
9.055110 794.000000
9.070440 825.000000
9.085769 832.000000
9.101098 793.000000
9.116428 825.000000
9.131757 799.000000
9.147087 774.000000
9.162416 838.000000
9.177745 810.000000
9.193075 772.000000
9.208404 788.000000
9.223733 833.000000
9.239063 788.000000
9.254392 795.000000
9.269722 774.000000
9.285051 756.000000
9.300380 788.000000
9.315710 785.000000
9.331039 823.000000
9.346369 745.000000
9.361698 811.000000
9.377027 811.000000
9.392357 769.000000
9.407686 802.000000
9.423016 799.000000
9.438345 768.000000
9.453674 778.000000
9.469004 771.000000
9.484333 730.000000
9.499663 758.000000
9.514992 755.000000
9.530321 778.000000
9.545651 779.000000
9.560980 751.000000
9.576310 796.000000
9.591639 774.000000
9.606968 783.000000
9.622298 777.000000
9.637627 769.000000
9.652956 711.000000
9.668286 750.000000
9.683615 807.000000
9.698945 785.000000
9.714274 717.000000
9.729603 753.000000
9.744933 759.000000
9.760262 776.000000
9.775592 737.000000
9.790921 779.000000
9.806250 725.000000
9.821580 744.000000
9.836909 730.000000
9.852239 739.000000
9.867568 738.000000
9.882897 685.000000
9.898227 757.000000
9.913556 736.000000
9.928886 759.000000
9.944215 748.000000
9.959544 730.000000
9.974874 769.000000
9.990203 772.000000
10.005533 742.000000
10.020862 755.000000
10.036191 724.000000
10.051521 706.000000
10.066850 754.000000
10.082179 741.000000
10.097509 715.000000
10.112838 763.000000
10.128168 766.000000
10.143497 671.000000
10.158826 766.000000
10.174156 731.000000
10.189485 725.000000
10.204815 743.000000
10.220144 764.000000
10.235473 745.000000
10.250803 710.000000
10.266132 749.000000
10.281462 731.000000
10.296791 750.000000
10.312120 729.000000
10.327450 772.000000
10.342779 712.000000
10.358109 752.000000
10.373438 766.000000
10.388767 772.000000
10.404097 767.000000
10.419426 755.000000
10.434756 780.000000
10.450085 753.000000
10.465414 745.000000
10.480744 812.000000
10.496073 757.000000
10.511402 731.000000
10.526732 767.000000
10.542061 775.000000
10.557391 806.000000
10.572720 784.000000
10.588049 729.000000
10.603379 805.000000
10.618708 800.000000
10.634038 794.000000
10.649367 807.000000
10.664696 796.000000
10.680026 814.000000
10.695355 876.000000
10.710685 816.000000
10.726014 836.000000
10.741343 894.000000
10.756673 837.000000
10.772002 878.000000
10.787332 945.000000
10.802661 958.000000
10.817990 918.000000
10.833320 915.000000
10.848649 898.000000
10.863979 813.000000
10.879308 863.000000
10.894637 875.000000
10.909967 899.000000
10.925296 894.000000
10.940625 943.000000
10.955955 895.000000
10.971284 933.000000
10.986614 903.000000
11.001943 937.000000
11.017272 893.000000
11.032602 925.000000
11.047931 953.000000
11.063261 941.000000
11.078590 993.000000
11.093919 950.000000
11.109249 985.000000
11.124578 985.000000
11.139908 1023.000000
11.155237 1030.000000
11.170566 1066.000000
11.185896 1070.000000
11.201225 1088.000000
11.216555 1145.000000
11.231884 1150.000000
11.247213 1074.000000
11.262543 1217.000000
11.277872 1157.000000
11.293202 1163.000000
11.308531 1192.000000
11.323860 1215.000000
11.339190 1228.000000
11.354519 1204.000000
11.369848 1173.000000
11.385178 1191.000000
11.400507 1094.000000
11.415837 1102.000000
11.431166 1003.000000
11.446495 985.000000
11.461825 981.000000
11.477154 983.000000
11.492484 977.000000
11.507813 919.000000
11.523142 909.000000
11.538472 922.000000
11.553801 866.000000
11.569131 826.000000
11.584460 834.000000
11.599789 862.000000
11.615119 789.000000
11.630448 839.000000
11.645778 813.000000
11.661107 798.000000
11.676436 778.000000
11.691766 777.000000
11.707095 764.000000
11.722425 683.000000
11.737754 741.000000
11.753083 773.000000
11.768413 717.000000
11.783742 732.000000
11.799071 722.000000
11.814401 732.000000
11.829730 730.000000
11.845060 731.000000
11.860389 708.000000
11.875718 706.000000
11.891048 717.000000
11.906377 664.000000
11.921707 673.000000
11.937036 679.000000
11.952365 661.000000
11.967695 689.000000
11.983024 710.000000
11.998354 690.000000
12.013683 703.000000
12.029012 633.000000
12.044342 668.000000
12.059671 675.000000
12.075001 671.000000
12.090330 675.000000
12.105659 652.000000
12.120989 628.000000
12.136318 631.000000
12.151648 649.000000
12.166977 668.000000
12.182306 660.000000
12.197636 655.000000
12.212965 642.000000
12.228294 644.000000
12.243624 681.000000
12.258953 625.000000
12.274283 657.000000
12.289612 635.000000
12.304941 628.000000
12.320271 664.000000
12.335600 650.000000
12.350930 671.000000
12.366259 637.000000
12.381588 629.000000
12.396918 662.000000
12.412247 669.000000
12.427577 641.000000
12.442906 629.000000
12.458235 635.000000
12.473565 637.000000
12.488894 687.000000
12.504224 641.000000
12.519553 655.000000
12.534882 647.000000
12.550212 642.000000
12.565541 672.000000
12.580871 638.000000
12.596200 683.000000
12.611529 643.000000
12.626859 677.000000
12.642188 599.000000
12.657517 598.000000
12.672847 609.000000
12.688176 552.000000
12.703506 645.000000
12.718835 615.000000
12.734164 637.000000
12.749494 604.000000
12.764823 616.000000
12.780153 587.000000
12.795482 632.000000
12.810811 623.000000
12.826141 618.000000
12.841470 596.000000
12.856800 615.000000
12.872129 611.000000
12.887458 651.000000
12.902788 584.000000
12.918117 639.000000
12.933447 591.000000
12.948776 647.000000
12.964105 618.000000
12.979435 599.000000
12.994764 581.000000
13.010094 595.000000
13.025423 609.000000
13.040752 633.000000
13.056082 633.000000
13.071411 603.000000
13.086740 628.000000
13.102070 630.000000
13.117399 581.000000
13.132729 605.000000
13.148058 615.000000
13.163387 546.000000
13.178717 569.000000
13.194046 631.000000
13.209376 629.000000
13.224705 653.000000
13.240034 595.000000
13.255364 643.000000
13.270693 592.000000
13.286023 627.000000
13.301352 625.000000
13.316681 625.000000
13.332011 602.000000
13.347340 569.000000
13.362670 573.000000
13.377999 572.000000
13.393328 601.000000
13.408658 570.000000
13.423987 605.000000
13.439317 596.000000
13.454646 582.000000
13.469975 602.000000
13.485305 641.000000
13.500634 657.000000
13.515963 605.000000
13.531293 611.000000
13.546622 660.000000
13.561952 661.000000
13.577281 646.000000
13.592610 645.000000
13.607940 640.000000
13.623269 653.000000
13.638599 656.000000
13.653928 610.000000
13.669257 584.000000
13.684587 587.000000
13.699916 564.000000
13.715246 625.000000
13.730575 591.000000
13.745904 612.000000
13.761234 585.000000
13.776563 543.000000
13.791893 539.000000
13.807222 637.000000
13.822551 595.000000
13.837881 567.000000
13.853210 607.000000
13.868540 587.000000
13.883869 612.000000
13.899198 530.000000
13.914528 521.000000
13.929857 563.000000
13.945186 567.000000
13.960516 539.000000
13.975845 600.000000
13.991175 536.000000
14.006504 566.000000
14.021833 594.000000
14.037163 539.000000
14.052492 524.000000
14.067822 577.000000
14.083151 581.000000
14.098480 566.000000
14.113810 577.000000
14.129139 569.000000
14.144469 558.000000
14.159798 572.000000
14.175127 615.000000
14.190457 540.000000
14.205786 545.000000
14.221116 564.000000
14.236445 535.000000
14.251774 560.000000
14.267104 573.000000
14.282433 558.000000
14.297763 576.000000
14.313092 535.000000
14.328421 576.000000
14.343751 557.000000
14.359080 543.000000
14.374409 586.000000
14.389739 556.000000
14.405068 587.000000
14.420398 576.000000
14.435727 580.000000
14.451056 542.000000
14.466386 584.000000
14.481715 561.000000
14.497045 523.000000
14.512374 533.000000
14.527703 530.000000
14.543033 580.000000
14.558362 570.000000
14.573692 561.000000
14.589021 535.000000
14.604350 563.000000
14.619680 581.000000
14.635009 524.000000
14.650339 531.000000
14.665668 576.000000
14.680997 551.000000
14.696327 535.000000
14.711656 544.000000
14.726986 603.000000
14.742315 549.000000
14.757644 579.000000
14.772974 550.000000
14.788303 600.000000
14.803632 587.000000
14.818962 581.000000
14.834291 594.000000
14.849621 578.000000
14.864950 590.000000
14.880279 548.000000
14.895609 609.000000
14.910938 536.000000
14.926268 587.000000
14.941597 520.000000
14.956926 597.000000
14.972256 593.000000
14.987585 590.000000
15.002915 615.000000
15.018244 586.000000
15.033573 653.000000
15.048903 635.000000
15.064232 614.000000
15.079562 611.000000
15.094891 634.000000
15.110220 633.000000
15.125550 591.000000
15.140879 610.000000
15.156209 569.000000
15.171538 562.000000
15.186867 545.000000
15.202197 583.000000
15.217526 527.000000
15.232855 548.000000
15.248185 529.000000
15.263514 570.000000
15.278844 586.000000
15.294173 555.000000
15.309502 551.000000
15.324832 516.000000
15.340161 567.000000
15.355491 514.000000
15.370820 574.000000
15.386149 564.000000
15.401479 505.000000
15.416808 552.000000
15.432138 555.000000
15.447467 530.000000
15.462796 564.000000
15.478126 562.000000
15.493455 543.000000
15.508785 576.000000
15.524114 536.000000
15.539443 530.000000
15.554773 569.000000
15.570102 577.000000
15.585432 561.000000
15.600761 571.000000
15.616090 509.000000
15.631420 533.000000
15.646749 550.000000
15.662078 531.000000
15.677408 554.000000
15.692737 563.000000
15.708067 536.000000
15.723396 530.000000
15.738725 532.000000
15.754055 592.000000
15.769384 578.000000
15.784714 536.000000
15.800043 567.000000
15.815372 568.000000
15.830702 544.000000
15.846031 540.000000
15.861361 596.000000
15.876690 587.000000
15.892019 543.000000
15.907349 606.000000
15.922678 598.000000
15.938008 557.000000
15.953337 549.000000
15.968666 607.000000
15.983996 568.000000
15.999325 587.000000
16.014655 561.000000
16.029984 631.000000
16.045313 608.000000
16.060643 571.000000
16.075972 587.000000
16.091301 599.000000
16.106631 610.000000
16.121960 581.000000
16.137290 615.000000
16.152619 579.000000
16.167948 594.000000
16.183278 555.000000
16.198607 541.000000
16.213937 602.000000
16.229266 603.000000
16.244595 606.000000
16.259925 589.000000
16.275254 605.000000
16.290584 589.000000
16.305913 577.000000
16.321242 572.000000
16.336572 575.000000
16.351901 575.000000
16.367231 572.000000
16.382560 590.000000
16.397889 598.000000
16.413219 530.000000
16.428548 565.000000
16.443878 570.000000
16.459207 565.000000
16.474536 553.000000
16.489866 581.000000
16.505195 586.000000
16.520524 579.000000
16.535854 526.000000
16.551183 542.000000
16.566513 592.000000
16.581842 560.000000
16.597171 586.000000
16.612501 569.000000
16.627830 550.000000
16.643160 593.000000
16.658489 614.000000
16.673818 607.000000
16.689148 598.000000
16.704477 581.000000
16.719807 563.000000
16.735136 578.000000
16.750465 579.000000
16.765795 574.000000
16.781124 536.000000
16.796454 600.000000
16.811783 555.000000
16.827112 591.000000
16.842442 574.000000
16.857771 560.000000
16.873101 609.000000
16.888430 545.000000
16.903759 567.000000
16.919089 568.000000
16.934418 566.000000
16.949747 582.000000
16.965077 566.000000
16.980406 568.000000
16.995736 568.000000
17.011065 554.000000
17.026394 604.000000
17.041724 593.000000
17.057053 619.000000
17.072383 577.000000
17.087712 569.000000
17.103041 553.000000
17.118371 609.000000
17.133700 591.000000
17.149030 537.000000
17.164359 584.000000
17.179688 619.000000
17.195018 616.000000
17.210347 637.000000
17.225677 583.000000
17.241006 617.000000
17.256335 647.000000
17.271665 606.000000
17.286994 655.000000
17.302324 636.000000
17.317653 614.000000
17.332982 650.000000
17.348312 676.000000
17.363641 626.000000
17.378970 696.000000
17.394300 614.000000
17.409629 691.000000
17.424959 695.000000
17.440288 674.000000
17.455617 684.000000
17.470947 713.000000
17.486276 702.000000
17.501606 631.000000
17.516935 734.000000
17.532264 747.000000
17.547594 740.000000
17.562923 707.000000
17.578253 646.000000
17.593582 699.000000
17.608911 684.000000
17.624241 730.000000
17.639570 682.000000
17.654900 643.000000
17.670229 688.000000
17.685558 661.000000
17.700888 688.000000
17.716217 685.000000
17.731547 665.000000
17.746876 763.000000
17.762205 717.000000
17.777535 753.000000
17.792864 763.000000
17.808193 822.000000
17.823523 883.000000
17.838852 897.000000
17.854182 941.000000
17.869511 1004.000000
17.884840 1172.000000
17.900170 1240.000000
17.915499 1518.000000
17.930829 1899.000000
17.946158 2509.000000
17.961487 3209.000000
17.976817 4272.000000
17.992146 5488.000000
18.007476 6497.000000
18.022805 6802.000000
18.038134 6693.000000
18.053464 5424.000000
18.068793 4096.000000
18.084123 3255.000000
18.099452 2372.000000
18.114781 1605.000000
18.130111 1296.000000
18.145440 1110.000000
18.160770 1073.000000
18.176099 1056.000000
18.191428 988.000000
18.206758 949.000000
18.222087 987.000000
18.237416 903.000000
18.252746 962.000000
18.268075 957.000000
18.283405 938.000000
18.298734 948.000000
18.314063 932.000000
18.329393 1059.000000
18.344722 1030.000000
18.360052 1083.000000
18.375381 1174.000000
18.390710 1229.000000
18.406040 1349.000000
18.421369 1498.000000
18.436699 1768.000000
18.452028 1804.000000
18.467357 1965.000000
18.482687 2096.000000
18.498016 2063.000000
18.513346 2017.000000
18.528675 1971.000000
18.544004 1743.000000
18.559334 1512.000000
18.574663 1442.000000
18.589993 1254.000000
18.605322 1137.000000
18.620651 1055.000000
18.635981 964.000000
18.651310 912.000000
18.666639 923.000000
18.681969 854.000000
18.697298 793.000000
18.712628 736.000000
18.727957 720.000000
18.743286 778.000000
18.758616 730.000000
18.773945 706.000000
18.789275 671.000000
18.804604 723.000000
18.819933 696.000000
18.835263 707.000000
18.850592 688.000000
18.865922 636.000000
18.881251 675.000000
18.896580 675.000000
18.911910 666.000000
18.927239 617.000000
18.942569 631.000000
18.957898 600.000000
18.973227 620.000000
18.988557 602.000000
19.003886 629.000000
19.019216 621.000000
19.034545 611.000000
19.049874 606.000000
19.065204 611.000000
19.080533 557.000000
19.095862 564.000000
19.111192 602.000000
19.126521 609.000000
19.141851 596.000000
19.157180 586.000000
19.172509 632.000000
19.187839 610.000000
19.203168 571.000000
19.218498 624.000000
19.233827 625.000000
19.249156 610.000000
19.264486 612.000000
19.279815 587.000000
19.295145 592.000000
19.310474 601.000000
19.325803 599.000000
19.341133 652.000000
19.356462 639.000000
19.371792 576.000000
19.387121 562.000000
19.402450 576.000000
19.417780 622.000000
19.433109 619.000000
19.448439 615.000000
19.463768 581.000000
19.479097 554.000000
19.494427 639.000000
19.509756 660.000000
19.525085 607.000000
19.540415 671.000000
19.555744 645.000000
19.571074 674.000000
19.586403 677.000000
19.601732 684.000000
19.617062 671.000000
19.632391 712.000000
19.647721 660.000000
19.663050 703.000000
19.678379 697.000000
19.693709 728.000000
19.709038 708.000000
19.724368 727.000000
19.739697 747.000000
19.755026 684.000000
19.770356 683.000000
19.785685 664.000000
19.801015 643.000000
19.816344 705.000000
19.831673 652.000000
19.847003 658.000000
19.862332 673.000000
19.877662 650.000000
19.892991 641.000000
19.908320 659.000000
19.923650 662.000000
19.938979 665.000000
19.954308 627.000000
19.969638 617.000000
19.984967 611.000000
20.000297 688.000000
20.015626 647.000000
20.030955 607.000000
20.046285 627.000000
20.061614 659.000000
20.076944 660.000000
20.092273 611.000000
20.107602 662.000000
20.122932 666.000000
20.138261 669.000000
20.153591 710.000000
20.168920 666.000000
20.184249 664.000000
20.199579 662.000000
20.214908 637.000000
20.230238 638.000000
20.245567 676.000000
20.260896 609.000000
20.276226 609.000000
20.291555 618.000000
20.306885 609.000000
20.322214 604.000000
20.337543 659.000000
20.352873 617.000000
20.368202 577.000000
20.383531 594.000000
20.398861 632.000000
20.414190 622.000000
20.429520 602.000000
20.444849 628.000000
20.460178 583.000000
20.475508 624.000000
20.490837 608.000000
20.506167 608.000000
20.521496 586.000000
20.536825 602.000000
20.552155 646.000000
20.567484 630.000000
20.582814 653.000000
20.598143 583.000000
20.613472 623.000000
20.628802 629.000000
20.644131 626.000000
20.659461 676.000000
20.674790 664.000000
20.690119 747.000000
20.705449 733.000000
20.720778 751.000000
20.736108 903.000000
20.751437 1121.000000
20.766766 1278.000000
20.782096 1670.000000
20.797425 2023.000000
20.812754 2506.000000
20.828084 2514.000000
20.843413 2302.000000
20.858743 1937.000000
20.874072 1824.000000
20.889401 1570.000000
20.904731 1415.000000
20.920060 1303.000000
20.935390 1280.000000
20.950719 1193.000000
20.966048 1184.000000
20.981378 1094.000000
20.996707 1073.000000
21.012037 926.000000
21.027366 917.000000
21.042695 772.000000
21.058025 742.000000
21.073354 727.000000
21.088684 650.000000
21.104013 651.000000
21.119342 588.000000
21.134672 639.000000
21.150001 619.000000
21.165331 651.000000
21.180660 602.000000
21.195989 613.000000
21.211319 606.000000
21.226648 588.000000
21.241977 587.000000
21.257307 615.000000
21.272636 608.000000
21.287966 636.000000
21.303295 646.000000
21.318624 639.000000
21.333954 625.000000
21.349283 647.000000
21.364613 666.000000
21.379942 572.000000
21.395271 577.000000
21.410601 636.000000
21.425930 605.000000
21.441260 614.000000
21.456589 599.000000
21.471918 631.000000
21.487248 579.000000
21.502577 624.000000
21.517907 644.000000
21.533236 612.000000
21.548565 625.000000
21.563895 656.000000
21.579224 659.000000
21.594554 676.000000
21.609883 651.000000
21.625212 653.000000
21.640542 663.000000
21.655871 617.000000
21.671200 691.000000
21.686530 657.000000
21.701859 638.000000
21.717189 650.000000
21.732518 644.000000
21.747847 671.000000
21.763177 697.000000
21.778506 702.000000
21.793836 641.000000
21.809165 659.000000
21.824494 686.000000
21.839824 666.000000
21.855153 694.000000
21.870483 671.000000
21.885812 647.000000
21.901141 672.000000
21.916471 646.000000
21.931800 682.000000
21.947130 664.000000
21.962459 671.000000
21.977788 637.000000
21.993118 678.000000
22.008447 636.000000
22.023777 662.000000
22.039106 677.000000
22.054435 653.000000
22.069765 676.000000
22.085094 574.000000
22.100423 596.000000
22.115753 624.000000
22.131082 643.000000
22.146412 683.000000
22.161741 639.000000
22.177070 652.000000
22.192400 677.000000
22.207729 661.000000
22.223059 713.000000
22.238388 643.000000
22.253717 693.000000
22.269047 705.000000
22.284376 721.000000
22.299706 707.000000
22.315035 713.000000
22.330364 721.000000
22.345694 683.000000
22.361023 747.000000
22.376353 699.000000
22.391682 725.000000
22.407011 754.000000
22.422341 732.000000
22.437670 813.000000
22.453000 785.000000
22.468329 775.000000
22.483658 798.000000
22.498988 817.000000
22.514317 778.000000
22.529646 844.000000
22.544976 798.000000
22.560305 787.000000
22.575635 789.000000
22.590964 805.000000
22.606293 733.000000
22.621623 762.000000
22.636952 824.000000
22.652282 767.000000
22.667611 833.000000
22.682940 812.000000
22.698270 835.000000
22.713599 816.000000
22.728929 857.000000
22.744258 842.000000
22.759587 828.000000
22.774917 865.000000
22.790246 937.000000
22.805576 939.000000
22.820905 950.000000
22.836234 907.000000
22.851564 970.000000
22.866893 959.000000
22.882223 994.000000
22.897552 1026.000000
22.912881 1165.000000
22.928211 1188.000000
22.943540 1407.000000
22.958869 1720.000000
22.974199 1822.000000
22.989528 2284.000000
23.004858 2649.000000
23.020187 2940.000000
23.035516 3151.000000
23.050846 3339.000000
23.066175 2964.000000
23.081505 2496.000000
23.096834 2212.000000
23.112163 1994.000000
23.127493 1677.000000
23.142822 1259.000000
23.158152 1166.000000
23.173481 1027.000000
23.188810 1001.000000
23.204140 949.000000
23.219469 915.000000
23.234799 883.000000
23.250128 824.000000
23.265457 815.000000
23.280787 758.000000
23.296116 832.000000
23.311446 867.000000
23.326775 891.000000
23.342104 873.000000
23.357434 869.000000
23.372763 885.000000
23.388092 984.000000
23.403422 979.000000
23.418751 998.000000
23.434081 1022.000000
23.449410 1059.000000
23.464739 1022.000000
23.480069 1031.000000
23.495398 1023.000000
23.510728 964.000000
23.526057 974.000000
23.541386 919.000000
23.556716 913.000000
23.572045 882.000000
23.587375 869.000000
23.602704 798.000000
23.618033 838.000000
23.633363 756.000000
23.648692 776.000000
23.664022 787.000000
23.679351 759.000000
23.694680 797.000000
23.710010 695.000000
23.725339 756.000000
23.740669 692.000000
23.755998 741.000000
23.771327 747.000000
23.786657 787.000000
23.801986 747.000000
23.817315 739.000000
23.832645 745.000000
23.847974 745.000000
23.863304 781.000000
23.878633 818.000000
23.893962 802.000000
23.909292 863.000000
23.924621 828.000000
23.939951 857.000000
23.955280 841.000000
23.970609 866.000000
23.985939 853.000000
24.001268 846.000000
24.016598 867.000000
24.031927 851.000000
24.047256 801.000000
24.062586 800.000000
24.077915 840.000000
24.093245 855.000000
24.108574 809.000000
24.123903 798.000000
24.139233 811.000000
24.154562 742.000000
24.169892 736.000000
24.185221 815.000000
24.200550 777.000000
24.215880 664.000000
24.231209 716.000000
24.246538 749.000000
24.261868 702.000000
24.277197 699.000000
24.292527 773.000000
24.307856 704.000000
24.323185 700.000000
24.338515 653.000000
24.353844 712.000000
24.369174 681.000000
24.384503 657.000000
24.399832 713.000000
24.415162 701.000000
24.430491 738.000000
24.445821 734.000000
24.461150 711.000000
24.476479 777.000000
24.491809 778.000000
24.507138 825.000000
24.522468 764.000000
24.537797 761.000000
24.553126 769.000000
24.568456 766.000000
24.583785 744.000000
24.599115 741.000000
24.614444 738.000000
24.629773 713.000000
24.645103 760.000000
24.660432 790.000000
24.675761 764.000000
24.691091 758.000000
24.706420 732.000000
24.721750 725.000000
24.737079 728.000000
24.752408 698.000000
24.767738 725.000000
24.783067 749.000000
24.798397 718.000000
24.813726 661.000000
24.829055 734.000000
24.844385 722.000000
24.859714 712.000000
24.875044 743.000000
24.890373 700.000000
24.905702 773.000000
24.921032 728.000000
24.936361 784.000000
24.951691 735.000000
24.967020 788.000000
24.982349 740.000000
24.997679 774.000000
25.013008 794.000000
25.028337 725.000000
25.043667 765.000000
25.058996 838.000000
25.074326 766.000000
25.089655 842.000000
25.104984 807.000000
25.120314 808.000000
25.135643 763.000000
25.150973 806.000000
25.166302 791.000000
25.181631 769.000000
25.196961 801.000000
25.212290 818.000000
25.227620 823.000000
25.242949 835.000000
25.258278 906.000000
25.273608 927.000000
25.288937 945.000000
25.304267 900.000000
25.319596 869.000000
25.334925 925.000000
25.350255 886.000000
25.365584 871.000000
25.380914 832.000000
25.396243 827.000000
25.411572 796.000000
25.426902 837.000000
25.442231 827.000000
25.457560 835.000000
25.472890 874.000000
25.488219 778.000000
25.503549 910.000000
25.518878 930.000000
25.534207 887.000000
25.549537 960.000000
25.564866 974.000000
25.580196 966.000000
25.595525 965.000000
25.610854 1030.000000
25.626184 1155.000000
25.641513 1194.000000
25.656843 1156.000000
25.672172 1203.000000
25.687501 1161.000000
25.702831 1159.000000
25.718160 1105.000000
25.733490 1069.000000
25.748819 1044.000000
25.764148 998.000000
25.779478 956.000000
25.794807 939.000000
25.810137 920.000000
25.825466 878.000000
25.840795 857.000000
25.856125 855.000000
25.871454 862.000000
25.886783 827.000000
25.902113 866.000000
25.917442 846.000000
25.932772 832.000000
25.948101 830.000000
25.963430 825.000000
25.978760 851.000000
25.994089 863.000000
26.009419 806.000000
26.024748 854.000000
26.040077 831.000000
26.055407 875.000000
26.070736 792.000000
26.086066 866.000000
26.101395 863.000000
26.116724 839.000000
26.132054 887.000000
26.147383 894.000000
26.162713 883.000000
26.178042 850.000000
26.193371 901.000000
26.208701 876.000000
26.224030 910.000000
26.239360 875.000000
26.254689 958.000000
26.270018 931.000000
26.285348 923.000000
26.300677 968.000000
26.316006 959.000000
26.331336 996.000000
26.346665 1000.000000
26.361995 1074.000000
26.377324 1116.000000
26.392653 1067.000000
26.407983 1151.000000
26.423312 1222.000000
26.438642 1296.000000
26.453971 1376.000000
26.469300 1523.000000
26.484630 1629.000000
26.499959 1889.000000
26.515289 2315.000000
26.530618 2860.000000
26.545947 4096.000000
26.561277 6247.000000
26.576606 9365.000000
26.591936 12262.000000
26.607265 11989.000000
26.622594 9873.000000
26.637924 8404.000000
26.653253 8184.000000
26.668583 7486.000000
26.683912 5792.000000
26.699241 4004.000000
26.714571 3159.000000
26.729900 2240.000000
26.745229 1862.000000
26.760559 1753.000000
26.775888 1647.000000
26.791218 1574.000000
26.806547 1524.000000
26.821876 1459.000000
26.837206 1416.000000
26.852535 1330.000000
26.867865 1335.000000
26.883194 1260.000000
26.898523 1274.000000
26.913853 1163.000000
26.929182 1216.000000
26.944512 1128.000000
26.959841 1151.000000
26.975170 1237.000000
26.990500 1240.000000
27.005829 1262.000000
27.021159 1179.000000
27.036488 1282.000000
27.051817 1358.000000
27.067147 1298.000000
27.082476 1289.000000
27.097806 1312.000000
27.113135 1190.000000
27.128464 1221.000000
27.143794 1225.000000
27.159123 1149.000000
27.174452 1067.000000
27.189782 1045.000000
27.205111 1139.000000
27.220441 1040.000000
27.235770 1032.000000
27.251099 1034.000000
27.266429 1007.000000
27.281758 1085.000000
27.297088 1029.000000
27.312417 1073.000000
27.327746 1125.000000
27.343076 1118.000000
27.358405 1158.000000
27.373735 1220.000000
27.389064 1260.000000
27.404393 1223.000000
27.419723 1311.000000
27.435052 1241.000000
27.450382 1290.000000
27.465711 1346.000000
27.481040 1385.000000
27.496370 1347.000000
27.511699 1332.000000
27.527029 1365.000000
27.542358 1382.000000
27.557687 1376.000000
27.573017 1372.000000
27.588346 1363.000000
27.603675 1296.000000
27.619005 1290.000000
27.634334 1200.000000
27.649664 1218.000000
27.664993 1133.000000
27.680322 1138.000000
27.695652 1116.000000
27.710981 1077.000000
27.726311 1068.000000
27.741640 1080.000000
27.756969 1092.000000
27.772299 1110.000000
27.787628 1073.000000
27.802958 1077.000000
27.818287 1050.000000
27.833616 1065.000000
27.848946 1102.000000
27.864275 1027.000000
27.879605 1010.000000
27.894934 1123.000000
27.910263 1100.000000
27.925593 1017.000000
27.940922 1063.000000
27.956252 1111.000000
27.971581 1063.000000
27.986910 974.000000
28.002240 1065.000000
28.017569 1085.000000
28.032898 1030.000000
28.048228 1047.000000
28.063557 1056.000000
28.078887 1038.000000
28.094216 1013.000000
28.109545 1070.000000
28.124875 975.000000
28.140204 1037.000000
28.155534 1018.000000
28.170863 1109.000000
28.186192 1052.000000
28.201522 1100.000000
28.216851 1015.000000
28.232181 1124.000000
28.247510 1065.000000
28.262839 1124.000000
28.278169 1056.000000
28.293498 1081.000000
28.308828 1053.000000
28.324157 1119.000000
28.339486 1052.000000
28.354816 1055.000000
28.370145 1112.000000
28.385475 1127.000000
28.400804 1211.000000
28.416133 1143.000000
28.431463 1111.000000
28.446792 1114.000000
28.462121 1168.000000
28.477451 1190.000000
28.492780 1202.000000
28.508110 1227.000000
28.523439 1238.000000
28.538768 1316.000000
28.554098 1375.000000
28.569427 1481.000000
28.584757 1595.000000
28.600086 1792.000000
28.615415 1936.000000
28.630745 2119.000000
28.646074 2279.000000
28.661404 2139.000000
28.676733 1977.000000
28.692062 1964.000000
28.707392 1880.000000
28.722721 1885.000000
28.738051 1664.000000
28.753380 1528.000000
28.768709 1534.000000
28.784039 1470.000000
28.799368 1359.000000
28.814698 1480.000000
28.830027 1438.000000
28.845356 1456.000000
28.860686 1490.000000
28.876015 1517.000000
28.891344 1493.000000
28.906674 1548.000000
28.922003 1498.000000
28.937333 1576.000000
28.952662 1554.000000
28.967991 1656.000000
28.983321 1689.000000
28.998650 1745.000000
29.013980 1776.000000
29.029309 1734.000000
29.044638 1778.000000
29.059968 1871.000000
29.075297 1902.000000
29.090627 1925.000000
29.105956 1977.000000
29.121285 2144.000000
29.136615 2257.000000
29.151944 2304.000000
29.167274 2489.000000
29.182603 2661.000000
29.197932 2835.000000
29.213262 3181.000000
29.228591 3627.000000
29.243921 4007.000000
29.259250 5015.000000
29.274579 6028.000000
29.289909 7285.000000
29.305238 9484.000000
29.320567 12396.000000
29.335897 16102.000000
29.351226 19505.000000
29.366556 22653.000000
29.381885 23900.000000
29.397214 22855.000000
29.412544 20782.000000
29.427873 18524.000000
29.443203 16914.000000
29.458532 14763.000000
29.473861 12078.000000
29.489191 9570.000000
29.504520 7549.000000
29.519850 5593.000000
29.535179 4428.000000
29.550508 3713.000000
29.565838 3178.000000
29.581167 2949.000000
29.596497 2647.000000
29.611826 2535.000000
29.627155 2374.000000
29.642485 2226.000000
29.657814 2052.000000
29.673144 2092.000000
29.688473 2031.000000
29.703802 2006.000000
29.719132 2002.000000
29.734461 2013.000000
29.749790 1987.000000
29.765120 1987.000000
29.780449 1902.000000
29.795779 1873.000000
29.811108 1834.000000
29.826437 1932.000000
29.841767 1756.000000
29.857096 1857.000000
29.872426 1700.000000
29.887755 1778.000000
29.903084 1587.000000
29.918414 1608.000000
29.933743 1559.000000
29.949073 1604.000000
29.964402 1547.000000
29.979731 1499.000000
29.995061 1469.000000
30.010390 1444.000000
30.025720 1449.000000
30.041049 1476.000000
30.056378 1361.000000
30.071708 1378.000000
30.087037 1436.000000
30.102367 1394.000000
30.117696 1315.000000
30.133025 1362.000000
30.148355 1263.000000
30.163684 1301.000000
30.179013 1371.000000
30.194343 1321.000000
30.209672 1351.000000
30.225002 1257.000000
30.240331 1229.000000
30.255660 1241.000000
30.270990 1318.000000
30.286319 1189.000000
30.301649 1280.000000
30.316978 1284.000000
30.332307 1176.000000
30.347637 1243.000000
30.362966 1152.000000
30.378296 1222.000000
30.393625 1219.000000
30.408954 1290.000000
30.424284 1281.000000
30.439613 1166.000000
30.454943 1292.000000
30.470272 1180.000000
30.485601 1168.000000
30.500931 1207.000000
30.516260 1270.000000
30.531590 1231.000000
30.546919 1185.000000
30.562248 1240.000000
30.577578 1265.000000
30.592907 1200.000000
30.608236 1235.000000
30.623566 1284.000000
30.638895 1327.000000
30.654225 1334.000000
30.669554 1381.000000
30.684883 1479.000000
30.700213 1461.000000
30.715542 1568.000000
30.730872 1668.000000
30.746201 1668.000000
30.761530 1646.000000
30.776860 1688.000000
30.792189 1794.000000
30.807519 1660.000000
30.822848 1687.000000
30.838177 1753.000000
30.853507 1687.000000
30.868836 1771.000000
30.884166 1637.000000
30.899495 1599.000000
30.914824 1526.000000
30.930154 1488.000000
30.945483 1473.000000
30.960813 1399.000000
30.976142 1428.000000
30.991471 1354.000000
31.006801 1346.000000
31.022130 1249.000000
31.037459 1300.000000
31.052789 1295.000000
31.068118 1234.000000
31.083448 1372.000000
31.098777 1331.000000
31.114106 1398.000000
31.129436 1435.000000
31.144765 1504.000000
31.160095 1694.000000
31.175424 1698.000000
31.190753 1731.000000
31.206083 1771.000000
31.221412 1692.000000
31.236742 1732.000000
31.252071 1823.000000
31.267400 1681.000000
31.282730 1654.000000
31.298059 1648.000000
31.313389 1601.000000
31.328718 1631.000000
31.344047 1597.000000
31.359377 1592.000000
31.374706 1622.000000
31.390036 1654.000000
31.405365 1611.000000
31.420694 1626.000000
31.436024 1604.000000
31.451353 1669.000000
31.466682 1665.000000
31.482012 1607.000000
31.497341 1665.000000
31.512671 1582.000000
31.528000 1548.000000
31.543329 1468.000000
31.558659 1318.000000
31.573988 1262.000000
31.589318 1274.000000
31.604647 1217.000000
31.619976 1150.000000
31.635306 1164.000000
31.650635 1089.000000
31.665965 1085.000000
31.681294 1044.000000
31.696623 1097.000000
31.711953 1077.000000
31.727282 1087.000000
31.742612 1083.000000
31.757941 1086.000000
31.773270 1123.000000
31.788600 1151.000000
31.803929 1206.000000
31.819259 1111.000000
31.834588 1222.000000
31.849917 1181.000000
31.865247 1190.000000
31.880576 1292.000000
31.895905 1308.000000
31.911235 1341.000000
31.926564 1285.000000
31.941894 1308.000000
31.957223 1215.000000
31.972552 1257.000000
31.987882 1248.000000
32.003211 1234.000000
32.018541 1261.000000
32.033870 1201.000000
32.049199 1173.000000
32.064529 1174.000000
32.079858 1124.000000
32.095188 1162.000000
32.110517 1133.000000
32.125846 1140.000000
32.141176 1077.000000
32.156505 1117.000000
32.171835 1130.000000
32.187164 1122.000000
32.202493 1170.000000
32.217823 1077.000000
32.233152 1109.000000
32.248482 1102.000000
32.263811 1101.000000
32.279140 1108.000000
32.294470 1103.000000
32.309799 1140.000000
32.325128 1084.000000
32.340458 1066.000000
32.355787 1080.000000
32.371117 1026.000000
32.386446 1032.000000
32.401775 1027.000000
32.417105 1003.000000
32.432434 1055.000000
32.447764 1024.000000
32.463093 1084.000000
32.478422 1065.000000
32.493752 1066.000000
32.509081 1062.000000
32.524411 1098.000000
32.539740 1082.000000
32.555069 1141.000000
32.570399 1187.000000
32.585728 1202.000000
32.601058 1187.000000
32.616387 1156.000000
32.631716 1134.000000
32.647046 1149.000000
32.662375 1201.000000
32.677705 1202.000000
32.693034 1150.000000
32.708363 1076.000000
32.723693 999.000000
32.739022 1013.000000
32.754351 1080.000000
32.769681 1006.000000
32.785010 952.000000
32.800340 967.000000
32.815669 960.000000
32.830998 922.000000
32.846328 922.000000
32.861657 880.000000
32.876987 954.000000
32.892316 958.000000
32.907645 985.000000
32.922975 966.000000
32.938304 986.000000
32.953634 994.000000
32.968963 929.000000
32.984292 991.000000
32.999622 975.000000
33.014951 1005.000000
33.030281 1027.000000
33.045610 1045.000000
33.060939 1137.000000
33.076269 1164.000000
33.091598 1176.000000
33.106928 1197.000000
33.122257 1265.000000
33.137586 1305.000000
33.152916 1267.000000
33.168245 1165.000000
33.183574 1159.000000
33.198904 1115.000000
33.214233 1089.000000
33.229563 1121.000000
33.244892 1082.000000
33.260221 1046.000000
33.275551 1031.000000
33.290880 980.000000
33.306210 993.000000
33.321539 1008.000000
33.336868 1012.000000
33.352198 1008.000000
33.367527 1056.000000
33.382857 1057.000000
33.398186 1028.000000
33.413515 1017.000000
33.428845 999.000000
33.444174 970.000000
33.459504 981.000000
33.474833 1008.000000
33.490162 1013.000000
33.505492 969.000000
33.520821 969.000000
33.536151 985.000000
33.551480 937.000000
33.566809 982.000000
33.582139 885.000000
33.597468 892.000000
33.612797 941.000000
33.628127 957.000000
33.643456 964.000000
33.658786 957.000000
33.674115 924.000000
33.689444 957.000000
33.704774 1013.000000
33.720103 1055.000000
33.735433 1039.000000
33.750762 1068.000000
33.766091 1124.000000
33.781421 1152.000000
33.796750 1176.000000
33.812080 1157.000000
33.827409 1132.000000
33.842738 1227.000000
33.858068 1266.000000
33.873397 1282.000000
33.888727 1375.000000
33.904056 1476.000000
33.919385 1649.000000
33.934715 1699.000000
33.950044 1979.000000
33.965374 2342.000000
33.980703 2786.000000
33.996032 3304.000000
34.011362 4095.000000
34.026691 4756.000000
34.042020 5369.000000
34.057350 5424.000000
34.072679 5407.000000
34.088009 4879.000000
34.103338 4608.000000
34.118667 4204.000000
34.133997 3945.000000
34.149326 3678.000000
34.164656 3305.000000
34.179985 2752.000000
34.195314 2399.000000
34.210644 2031.000000
34.225973 1668.000000
34.241303 1569.000000
34.256632 1464.000000
34.271961 1428.000000
34.287291 1355.000000
34.302620 1328.000000
34.317950 1307.000000
34.333279 1222.000000
34.348608 1196.000000
34.363938 1152.000000
34.379267 1134.000000
34.394597 1106.000000
34.409926 1111.000000
34.425255 1064.000000
34.440585 1135.000000
34.455914 1111.000000
34.471243 1070.000000
34.486573 1047.000000
34.501902 1013.000000
34.517232 1035.000000
34.532561 1082.000000
34.547890 1075.000000
34.563220 1064.000000
34.578549 1070.000000
34.593879 1022.000000
34.609208 1046.000000
34.624537 1098.000000
34.639867 1010.000000
34.655196 1042.000000
34.670526 1060.000000
34.685855 1089.000000
34.701184 994.000000
34.716514 1003.000000
34.731843 1044.000000
34.747173 981.000000
34.762502 1033.000000
34.777831 949.000000
34.793161 1021.000000
34.808490 991.000000
34.823820 953.000000
34.839149 963.000000
34.854478 1016.000000
34.869808 870.000000
34.885137 881.000000
34.900466 958.000000
34.915796 884.000000
34.931125 928.000000
34.946455 912.000000
34.961784 945.000000
34.977113 933.000000
34.992443 899.000000
35.007772 901.000000
35.023102 892.000000
35.038431 880.000000
35.053760 926.000000
35.069090 897.000000
35.084419 912.000000
35.099749 854.000000
35.115078 914.000000
35.130407 934.000000
35.145737 849.000000
35.161066 963.000000
35.176396 935.000000
35.191725 869.000000
35.207054 896.000000
35.222384 912.000000
35.237713 920.000000
35.253043 863.000000
35.268372 913.000000
35.283701 939.000000
35.299031 890.000000
35.314360 948.000000
35.329689 908.000000
35.345019 857.000000
35.360348 924.000000
35.375678 947.000000
35.391007 953.000000
35.406336 1055.000000
35.421666 991.000000
35.436995 1060.000000
35.452325 1029.000000
35.467654 1064.000000
35.482983 1096.000000
35.498313 1071.000000
35.513642 1151.000000
35.528972 1170.000000
35.544301 1120.000000
35.559630 1140.000000
35.574960 1238.000000
35.590289 1282.000000
35.605619 1265.000000
35.620948 1134.000000
35.636277 1193.000000
35.651607 1116.000000
35.666936 1056.000000
35.682266 1129.000000
35.697595 1075.000000
35.712924 1048.000000
35.728254 1008.000000
35.743583 1038.000000
35.758912 1063.000000
35.774242 1054.000000
35.789571 1116.000000
35.804901 1174.000000
35.820230 1236.000000
35.835559 1298.000000
35.850889 1334.000000
35.866218 1599.000000
35.881548 1743.000000
35.896877 2000.000000
35.912206 2261.000000
35.927536 2656.000000
35.942865 3014.000000
35.958195 3454.000000
35.973524 3454.000000
35.988853 3195.000000
36.004183 2755.000000
36.019512 2518.000000
36.034842 2433.000000
36.050171 2403.000000
36.065500 2214.000000
36.080830 2015.000000
36.096159 1683.000000
36.111489 1371.000000
36.126818 1181.000000
36.142147 1058.000000
36.157477 1001.000000
36.172806 932.000000
36.188135 989.000000
36.203465 873.000000
36.218794 840.000000
36.234124 871.000000
36.249453 849.000000
36.264782 834.000000
36.280112 818.000000
36.295441 771.000000
36.310771 785.000000
36.326100 840.000000
36.341429 808.000000
36.356759 794.000000
36.372088 810.000000
36.387418 826.000000
36.402747 887.000000
36.418076 842.000000
36.433406 882.000000
36.448735 1015.000000
36.464065 1057.000000
36.479394 1185.000000
36.494723 1218.000000
36.510053 1303.000000
36.525382 1200.000000
36.540712 1076.000000
36.556041 1065.000000
36.571370 1103.000000
36.586700 1033.000000
36.602029 1021.000000
36.617358 964.000000
36.632688 930.000000
36.648017 865.000000
36.663347 874.000000
36.678676 830.000000
36.694005 798.000000
36.709335 770.000000
36.724664 753.000000
36.739994 726.000000
36.755323 745.000000
36.770652 729.000000
36.785982 719.000000
36.801311 730.000000
36.816641 736.000000
36.831970 708.000000
36.847299 713.000000
36.862629 782.000000
36.877958 734.000000
36.893288 757.000000
36.908617 756.000000
36.923946 735.000000
36.939276 765.000000
36.954605 740.000000
36.969935 695.000000
36.985264 738.000000
37.000593 724.000000
37.015923 740.000000
37.031252 764.000000
37.046581 780.000000
37.061911 797.000000
37.077240 797.000000
37.092570 780.000000
37.107899 834.000000
37.123228 821.000000
37.138558 841.000000
37.153887 832.000000
37.169217 798.000000
37.184546 862.000000
37.199875 828.000000
37.215205 859.000000
37.230534 859.000000
37.245864 861.000000
37.261193 855.000000
37.276522 856.000000
37.291852 893.000000
37.307181 843.000000
37.322511 884.000000
37.337840 932.000000
37.353169 919.000000
37.368499 868.000000
37.383828 923.000000
37.399158 894.000000
37.414487 945.000000
37.429816 935.000000
37.445146 925.000000
37.460475 940.000000
37.475804 1004.000000
37.491134 1000.000000
37.506463 1063.000000
37.521793 1077.000000
37.537122 1101.000000
37.552451 1138.000000
37.567781 1275.000000
37.583110 1250.000000
37.598440 1315.000000
37.613769 1374.000000
37.629098 1445.000000
37.644428 1673.000000
37.659757 1687.000000
37.675087 1781.000000
37.690416 1870.000000
37.705745 1964.000000
37.721075 1920.000000
37.736404 1944.000000
37.751734 1949.000000
37.767063 2008.000000
37.782392 2047.000000
37.797722 2042.000000
37.813051 1953.000000
37.828381 1926.000000
37.843710 1831.000000
37.859039 1783.000000
37.874369 1715.000000
37.889698 1512.000000
37.905027 1521.000000
37.920357 1402.000000
37.935686 1385.000000
37.951016 1293.000000
37.966345 1212.000000
37.981674 1184.000000
37.997004 1159.000000
38.012333 1101.000000
38.027663 1086.000000
38.042992 1043.000000
38.058321 1004.000000
38.073651 980.000000
38.088980 979.000000
38.104310 895.000000
38.119639 882.000000
38.134968 919.000000
38.150298 858.000000
38.165627 858.000000
38.180957 881.000000
38.196286 884.000000
38.211615 872.000000
38.226945 823.000000
38.242274 823.000000
38.257604 834.000000
38.272933 805.000000
38.288262 802.000000
38.303592 872.000000
38.318921 809.000000
38.334250 782.000000
38.349580 798.000000
38.364909 849.000000
38.380239 735.000000
38.395568 756.000000
38.410897 740.000000
38.426227 754.000000
38.441556 780.000000
38.456886 803.000000
38.472215 757.000000
38.487544 778.000000
38.502874 774.000000
38.518203 752.000000
38.533533 768.000000
38.548862 735.000000
38.564191 798.000000
38.579521 770.000000
38.594850 765.000000
38.610180 758.000000
38.625509 802.000000
38.640838 779.000000
38.656168 773.000000
38.671497 800.000000
38.686827 750.000000
38.702156 813.000000
38.717485 767.000000
38.732815 803.000000
38.748144 818.000000
38.763473 790.000000
38.778803 775.000000
38.794132 850.000000
38.809462 796.000000
38.824791 847.000000
38.840120 799.000000
38.855450 813.000000
38.870779 806.000000
38.886109 837.000000
38.901438 787.000000
38.916767 761.000000
38.932097 836.000000
38.947426 840.000000
38.962756 822.000000
38.978085 826.000000
38.993414 869.000000
39.008744 846.000000
39.024073 825.000000
39.039403 817.000000
39.054732 841.000000
39.070061 860.000000
39.085391 869.000000
39.100720 857.000000
39.116050 915.000000
39.131379 946.000000
39.146708 897.000000
39.162038 982.000000
39.177367 1051.000000
39.192696 1035.000000
39.208026 1136.000000
39.223355 1190.000000
39.238685 1235.000000
39.254014 1432.000000
39.269343 1559.000000
39.284673 1741.000000
39.300002 2038.000000
39.315332 2242.000000
39.330661 2623.000000
39.345990 3064.000000
39.361320 3786.000000
39.376649 4377.000000
39.391979 4858.000000
39.407308 5354.000000
39.422637 5235.000000
39.437967 4894.000000
39.453296 4385.000000
39.468626 3915.000000
39.483955 3612.000000
39.499284 3465.000000
39.514614 3261.000000
39.529943 2974.000000
39.545273 2544.000000
39.560602 2136.000000
39.575931 1743.000000
39.591261 1462.000000
39.606590 1309.000000
39.621919 1138.000000
39.637249 1092.000000
39.652578 985.000000
39.667908 913.000000
39.683237 917.000000
39.698566 912.000000
39.713896 879.000000
39.729225 823.000000
39.744555 851.000000
39.759884 826.000000
39.775213 835.000000
39.790543 774.000000
39.805872 798.000000
39.821202 782.000000
39.836531 747.000000
39.851860 758.000000
39.867190 769.000000
39.882519 760.000000
39.897849 738.000000
39.913178 747.000000
39.928507 735.000000
39.943837 722.000000
39.959166 722.000000
39.974496 710.000000
39.989825 690.000000
40.005154 662.000000
40.020484 703.000000
40.035813 731.000000
40.051142 691.000000
40.066472 707.000000
40.081801 674.000000
40.097131 708.000000
40.112460 697.000000
40.127789 679.000000
40.143119 709.000000
40.158448 645.000000
40.173778 690.000000
40.189107 745.000000
40.204436 805.000000
40.219766 877.000000
40.235095 884.000000
40.250425 951.000000
40.265754 933.000000
40.281083 867.000000
40.296413 818.000000
40.311742 766.000000
40.327072 818.000000
40.342401 776.000000
40.357730 799.000000
40.373060 793.000000
40.388389 790.000000
40.403719 723.000000
40.419048 701.000000
40.434377 726.000000
40.449707 645.000000
40.465036 680.000000
40.480365 674.000000
40.495695 700.000000
40.511024 639.000000
40.526354 705.000000
40.541683 615.000000
40.557012 678.000000
40.572342 707.000000
40.587671 696.000000
40.603001 678.000000
40.618330 707.000000
40.633659 725.000000
40.648989 692.000000
40.664318 700.000000
40.679648 685.000000
40.694977 710.000000
40.710306 732.000000
40.725636 697.000000
40.740965 717.000000
40.756295 744.000000
40.771624 736.000000
40.786953 734.000000
40.802283 780.000000
40.817612 782.000000
40.832942 800.000000
40.848271 755.000000
40.863600 820.000000
40.878930 801.000000
40.894259 807.000000
40.909588 809.000000
40.924918 805.000000
40.940247 856.000000
40.955577 835.000000
40.970906 855.000000
40.986235 864.000000
41.001565 819.000000
41.016894 823.000000
41.032224 822.000000
41.047553 858.000000
41.062882 841.000000
41.078212 894.000000
41.093541 761.000000
41.108871 771.000000
41.124200 796.000000
41.139529 797.000000
41.154859 748.000000
41.170188 726.000000
41.185518 708.000000
41.200847 701.000000
41.216176 720.000000
41.231506 756.000000
41.246835 712.000000
41.262165 657.000000
41.277494 726.000000
41.292823 702.000000
41.308153 662.000000
41.323482 703.000000
41.338811 677.000000
41.354141 710.000000
41.369470 698.000000
41.384800 682.000000
41.400129 690.000000
41.415458 744.000000
41.430788 683.000000
41.446117 721.000000
41.461447 714.000000
41.476776 698.000000
41.492105 694.000000
41.507435 719.000000
41.522764 694.000000
41.538094 756.000000
41.553423 722.000000
41.568752 725.000000
41.584082 793.000000
41.599411 752.000000
41.614741 745.000000
41.630070 757.000000
41.645399 807.000000
41.660729 788.000000
41.676058 773.000000
41.691388 713.000000
41.706717 733.000000
41.722046 783.000000
41.737376 750.000000
41.752705 735.000000
41.768034 746.000000
41.783364 713.000000
41.798693 729.000000
41.814023 683.000000
41.829352 747.000000
41.844681 700.000000
41.860011 760.000000
41.875340 700.000000
41.890670 725.000000
41.905999 752.000000
41.921328 658.000000
41.936658 732.000000
41.951987 656.000000
41.967317 724.000000
41.982646 714.000000
41.997975 641.000000
42.013305 676.000000
42.028634 725.000000
42.043964 687.000000
42.059293 709.000000
42.074622 655.000000
42.089952 672.000000
42.105281 671.000000
42.120611 649.000000
42.135940 680.000000
42.151269 655.000000
42.166599 719.000000
42.181928 662.000000
42.197257 747.000000
42.212587 690.000000
42.227916 733.000000
42.243246 724.000000
42.258575 697.000000
42.273904 709.000000
42.289234 702.000000
42.304563 793.000000
42.319893 797.000000
42.335222 830.000000
42.350551 885.000000
42.365881 961.000000
42.381210 1137.000000
42.396540 1139.000000
42.411869 1129.000000
42.427198 1022.000000
42.442528 927.000000
42.457857 886.000000
42.473187 834.000000
42.488516 908.000000
42.503845 942.000000
42.519175 960.000000
42.534504 903.000000
42.549834 877.000000
42.565163 777.000000
42.580492 779.000000
42.595822 772.000000
42.611151 772.000000
42.626480 784.000000
42.641810 786.000000
42.657139 767.000000
42.672469 802.000000
42.687798 796.000000
42.703127 827.000000
42.718457 721.000000
42.733786 757.000000
42.749116 819.000000
42.764445 834.000000
42.779774 825.000000
42.795104 806.000000
42.810433 888.000000
42.825763 829.000000
42.841092 878.000000
42.856421 960.000000
42.871751 945.000000
42.887080 966.000000
42.902410 968.000000
42.917739 1031.000000
42.933068 1014.000000
42.948398 1010.000000
42.963727 1084.000000
42.979057 1203.000000
42.994386 1248.000000
43.009715 1341.000000
43.025045 1486.000000
43.040374 1639.000000
43.055703 1777.000000
43.071033 1954.000000
43.086362 2242.000000
43.101692 2639.000000
43.117021 3101.000000
43.132350 3511.000000
43.147680 4044.000000
43.163009 4789.000000
43.178339 4665.000000
43.193668 3979.000000
43.208997 3097.000000
43.224327 2769.000000
43.239656 2662.000000
43.254986 2607.000000
43.270315 2909.000000
43.285644 2800.000000
43.300974 2439.000000
43.316303 1900.000000
43.331633 1605.000000
43.346962 1343.000000
43.362291 1156.000000
43.377621 1101.000000
43.392950 1063.000000
43.408280 961.000000
43.423609 894.000000
43.438938 912.000000
43.454268 886.000000
43.469597 873.000000
43.484926 895.000000
43.500256 823.000000
43.515585 800.000000
43.530915 785.000000
43.546244 802.000000
43.561573 804.000000
43.576903 775.000000
43.592232 779.000000
43.607562 811.000000
43.622891 712.000000
43.638220 783.000000
43.653550 760.000000
43.668879 757.000000
43.684209 785.000000
43.699538 800.000000
43.714867 712.000000
43.730197 738.000000
43.745526 756.000000
43.760856 683.000000
43.776185 722.000000
43.791514 731.000000
43.806844 698.000000
43.822173 696.000000
43.837503 767.000000
43.852832 713.000000
43.868161 732.000000
43.883491 679.000000
43.898820 763.000000
43.914149 736.000000
43.929479 700.000000
43.944808 695.000000
43.960138 748.000000
43.975467 751.000000
43.990796 722.000000
44.006126 696.000000
44.021455 707.000000
44.036785 679.000000
44.052114 656.000000
44.067443 737.000000
44.082773 711.000000
44.098102 744.000000
44.113432 710.000000
44.128761 691.000000
44.144090 712.000000
44.159420 722.000000
44.174749 725.000000
44.190079 767.000000
44.205408 734.000000
44.220737 733.000000
44.236067 752.000000
44.251396 718.000000
44.266726 700.000000
44.282055 743.000000
44.297384 749.000000
44.312714 735.000000
44.328043 785.000000
44.343372 768.000000
44.358702 716.000000
44.374031 707.000000
44.389361 752.000000
44.404690 794.000000
44.420019 718.000000
44.435349 752.000000
44.450678 796.000000
44.466008 781.000000
44.481337 800.000000
44.496666 753.000000
44.511996 739.000000
44.527325 723.000000
44.542655 705.000000
44.557984 738.000000
44.573313 727.000000
44.588643 718.000000
44.603972 713.000000
44.619302 771.000000
44.634631 705.000000
44.649960 779.000000
44.665290 747.000000
44.680619 792.000000
44.695949 768.000000
44.711278 746.000000
44.726607 795.000000
44.741937 717.000000
44.757266 771.000000
44.772595 782.000000
44.787925 732.000000
44.803254 833.000000
44.818584 816.000000
44.833913 811.000000
44.849242 842.000000
44.864572 839.000000
44.879901 849.000000
44.895231 891.000000
44.910560 862.000000
44.925889 867.000000
44.941219 812.000000
44.956548 793.000000
44.971878 787.000000
44.987207 827.000000
45.002536 869.000000
45.017866 803.000000
45.033195 795.000000
45.048525 800.000000
45.063854 784.000000
45.079183 813.000000
45.094513 784.000000
45.109842 804.000000
45.125172 796.000000
45.140501 755.000000
45.155830 721.000000
45.171160 747.000000
45.186489 774.000000
45.201818 768.000000
45.217148 686.000000
45.232477 766.000000
45.247807 704.000000
45.263136 766.000000
45.278465 726.000000
45.293795 721.000000
45.309124 742.000000
45.324454 768.000000
45.339783 733.000000
45.355112 750.000000
45.370442 765.000000
45.385771 740.000000
45.401101 743.000000
45.416430 726.000000
45.431759 725.000000
45.447089 808.000000
45.462418 749.000000
45.477748 777.000000
45.493077 790.000000
45.508406 735.000000
45.523736 754.000000
45.539065 788.000000
45.554395 767.000000
45.569724 728.000000
45.585053 757.000000
45.600383 769.000000
45.615712 746.000000
45.631041 779.000000
45.646371 751.000000
45.661700 807.000000
45.677030 787.000000
45.692359 827.000000
45.707688 907.000000
45.723018 982.000000
45.738347 962.000000
45.753677 1099.000000
45.769006 1008.000000
45.784335 1035.000000
45.799665 972.000000
45.814994 906.000000
45.830324 897.000000
45.845653 903.000000
45.860982 949.000000
45.876312 955.000000
45.891641 885.000000
45.906971 861.000000
45.922300 858.000000
45.937629 895.000000
45.952959 795.000000
45.968288 826.000000
45.983618 810.000000
45.998947 819.000000
46.014276 792.000000
46.029606 790.000000
46.044935 778.000000
46.060264 809.000000
46.075594 773.000000
46.090923 787.000000
46.106253 752.000000
46.121582 812.000000
46.136911 773.000000
46.152241 785.000000
46.167570 809.000000
46.182900 816.000000
46.198229 844.000000
46.213558 837.000000
46.228888 854.000000
46.244217 828.000000
46.259547 818.000000
46.274876 866.000000
46.290205 822.000000
46.305535 814.000000
46.320864 846.000000
46.336194 831.000000
46.351523 816.000000
46.366852 854.000000
46.382182 812.000000
46.397511 804.000000
46.412841 844.000000
46.428170 793.000000
46.443499 753.000000
46.458829 828.000000
46.474158 777.000000
46.489487 792.000000
46.504817 751.000000
46.520146 794.000000
46.535476 817.000000
46.550805 794.000000
46.566134 766.000000
46.581464 797.000000
46.596793 805.000000
46.612123 797.000000
46.627452 776.000000
46.642781 842.000000
46.658111 811.000000
46.673440 833.000000
46.688770 872.000000
46.704099 810.000000
46.719428 806.000000
46.734758 860.000000
46.750087 834.000000
46.765417 872.000000
46.780746 955.000000
46.796075 926.000000
46.811405 985.000000
46.826734 1028.000000
46.842063 1017.000000
46.857393 1046.000000
46.872722 1052.000000
46.888052 1158.000000
46.903381 1209.000000
46.918710 1205.000000
46.934040 1318.000000
46.949369 1455.000000
46.964699 1550.000000
46.980028 1838.000000
46.995357 1999.000000
47.010687 2261.000000
47.026016 2529.000000
47.041346 2778.000000
47.056675 3079.000000
47.072004 3345.000000
47.087334 3523.000000
47.102663 3480.000000
47.117993 3356.000000
47.133322 3158.000000
47.148651 3074.000000
47.163981 2845.000000
47.179310 2781.000000
47.194640 2659.000000
47.209969 2703.000000
47.225298 2596.000000
47.240628 2407.000000
47.255957 2183.000000
47.271286 2017.000000
47.286616 2004.000000
47.301945 1918.000000
47.317275 1858.000000
47.332604 1793.000000
47.347933 1939.000000
47.363263 1960.000000
47.378592 2098.000000
47.393922 2357.000000
47.409251 2631.000000
47.424580 2838.000000
47.439910 3079.000000
47.455239 3541.000000
47.470569 3668.000000
47.485898 3787.000000
47.501227 3780.000000
47.516557 3787.000000
47.531886 3650.000000
47.547216 3223.000000
47.562545 3138.000000
47.577874 3001.000000
47.593204 2758.000000
47.608533 2817.000000
47.623863 2676.000000
47.639192 2390.000000
47.654521 2278.000000
47.669851 1961.000000
47.685180 1729.000000
47.700509 1549.000000
47.715839 1386.000000
47.731168 1260.000000
47.746498 1166.000000
47.761827 1088.000000
47.777156 1007.000000
47.792486 985.000000
47.807815 949.000000
47.823145 937.000000
47.838474 874.000000
47.853803 889.000000
47.869133 878.000000
47.884462 886.000000
47.899792 866.000000
47.915121 890.000000
47.930450 760.000000
47.945780 737.000000
47.961109 813.000000
47.976439 788.000000
47.991768 825.000000
48.007097 823.000000
48.022427 839.000000
48.037756 841.000000
48.053086 856.000000
48.068415 807.000000
48.083744 828.000000
48.099074 860.000000
48.114403 843.000000
48.129732 843.000000
48.145062 898.000000
48.160391 861.000000
48.175721 861.000000
48.191050 843.000000
48.206379 903.000000
48.221709 968.000000
48.237038 939.000000
48.252368 994.000000
48.267697 1005.000000
48.283026 1111.000000
48.298356 1099.000000
48.313685 1170.000000
48.329015 1273.000000
48.344344 1503.000000
48.359673 1568.000000
48.375003 1791.000000
48.390332 2010.000000
48.405662 2351.000000
48.420991 2555.000000
48.436320 3141.000000
48.451650 3374.000000
48.466979 3694.000000
48.482309 3637.000000
48.497638 3671.000000
48.512967 3566.000000
48.528297 3576.000000
48.543626 3242.000000
48.558955 3146.000000
48.574285 3019.000000
48.589614 2970.000000
48.604944 2747.000000
48.620273 2511.000000
48.635602 2419.000000
48.650932 2208.000000
48.666261 1997.000000
48.681591 1798.000000
48.696920 1521.000000
48.712249 1442.000000
48.727579 1255.000000
48.742908 1115.000000
48.758238 1063.000000
48.773567 960.000000
48.788896 1005.000000
48.804226 832.000000
48.819555 837.000000
48.834885 857.000000
48.850214 826.000000
48.865543 775.000000
48.880873 791.000000
48.896202 762.000000
48.911532 839.000000
48.926861 801.000000
48.942190 785.000000
48.957520 818.000000
48.972849 822.000000
48.988178 807.000000
49.003508 812.000000
49.018837 835.000000
49.034167 887.000000
49.049496 857.000000
49.064825 871.000000
49.080155 853.000000
49.095484 827.000000
49.110814 890.000000
49.126143 810.000000
49.141472 859.000000
49.156802 819.000000
49.172131 801.000000
49.187461 816.000000
49.202790 825.000000
49.218119 835.000000
49.233449 802.000000
49.248778 785.000000
49.264108 805.000000
49.279437 777.000000
49.294766 828.000000
49.310096 803.000000
49.325425 733.000000
49.340755 760.000000
49.356084 817.000000
49.371413 793.000000
49.386743 815.000000
49.402072 824.000000
49.417401 823.000000
49.432731 878.000000
49.448060 828.000000
49.463390 812.000000
49.478719 872.000000
49.494048 845.000000
49.509378 843.000000
49.524707 849.000000
49.540037 854.000000
49.555366 852.000000
49.570695 835.000000
49.586025 883.000000
49.601354 800.000000
49.616684 830.000000
49.632013 777.000000
49.647342 825.000000
49.662672 866.000000
49.678001 814.000000
49.693331 768.000000
49.708660 816.000000
49.723989 809.000000
49.739319 802.000000
49.754648 867.000000
49.769978 812.000000
49.785307 815.000000
49.800636 813.000000
49.815966 835.000000
49.831295 806.000000
49.846624 843.000000
49.861954 845.000000
49.877283 788.000000
49.892613 866.000000
49.907942 801.000000
49.923271 800.000000
49.938601 861.000000
49.953930 931.000000
49.969260 857.000000
49.984589 977.000000
49.999918 979.000000
50.015248 1074.000000
50.030577 1177.000000
50.045907 1236.000000
50.061236 1448.000000
50.076565 1665.000000
50.091895 1797.000000
50.107224 1975.000000
50.122554 1858.000000
50.137883 1569.000000
50.153212 1332.000000
50.168542 1213.000000
50.183871 1262.000000
50.199201 1353.000000
50.214530 1322.000000
50.229859 1499.000000
50.245189 1529.000000
50.260518 1517.000000
50.275847 1312.000000
50.291177 1254.000000
50.306506 1206.000000
50.321836 1156.000000
50.337165 1162.000000
50.352494 1158.000000
50.367824 1128.000000
50.383153 1212.000000
50.398483 1195.000000
50.413812 1197.000000
50.429141 1301.000000
50.444471 1256.000000
50.459800 1307.000000
50.475130 1316.000000
50.490459 1344.000000
50.505788 1386.000000
50.521118 1346.000000
50.536447 1330.000000
50.551777 1330.000000
50.567106 1395.000000
50.582435 1422.000000
50.597765 1437.000000
50.613094 1467.000000
50.628424 1500.000000
50.643753 1508.000000
50.659082 1600.000000
50.674412 1657.000000
50.689741 1756.000000
50.705070 1920.000000
50.720400 1981.000000
50.735729 2181.000000
50.751059 2177.000000
50.766388 2193.000000
50.781717 1991.000000
50.797047 1908.000000
50.812376 1771.000000
50.827706 1760.000000
50.843035 1662.000000
50.858364 1693.000000
50.873694 1638.000000
50.889023 1641.000000
50.904353 1554.000000
50.919682 1536.000000
50.935011 1349.000000
50.950341 1316.000000
50.965670 1162.000000
50.981000 1138.000000
50.996329 1082.000000
51.011658 1027.000000
51.026988 978.000000
51.042317 984.000000
51.057647 952.000000
51.072976 853.000000
51.088305 914.000000
51.103635 848.000000
51.118964 861.000000
51.134293 798.000000
51.149623 789.000000
51.164952 748.000000
51.180282 709.000000
51.195611 741.000000
51.210940 711.000000
51.226270 708.000000
51.241599 718.000000
51.256929 699.000000
51.272258 658.000000
51.287587 664.000000
51.302917 671.000000
51.318246 683.000000
51.333576 642.000000
51.348905 662.000000
51.364234 636.000000
51.379564 640.000000
51.394893 638.000000
51.410223 664.000000
51.425552 681.000000
51.440881 697.000000
51.456211 647.000000
51.471540 674.000000
51.486870 671.000000
51.502199 656.000000
51.517528 648.000000
51.532858 629.000000
51.548187 624.000000
51.563516 644.000000
51.578846 650.000000
51.594175 648.000000
51.609505 661.000000
51.624834 715.000000
51.640163 697.000000
51.655493 642.000000
51.670822 644.000000
51.686152 714.000000
51.701481 657.000000
51.716810 665.000000
51.732140 625.000000
51.747469 702.000000
51.762799 693.000000
51.778128 663.000000
51.793457 722.000000
51.808787 697.000000
51.824116 650.000000
51.839446 705.000000
51.854775 746.000000
51.870104 690.000000
51.885434 683.000000
51.900763 708.000000
51.916093 727.000000
51.931422 719.000000
51.946751 707.000000
51.962081 706.000000
51.977410 660.000000
51.992739 666.000000
52.008069 634.000000
52.023398 664.000000
52.038728 699.000000
52.054057 657.000000
52.069386 643.000000
52.084716 674.000000
52.100045 654.000000
52.115375 619.000000
52.130704 687.000000
52.146033 599.000000
52.161363 633.000000
52.176692 582.000000
52.192022 658.000000
52.207351 616.000000
52.222680 615.000000
52.238010 633.000000
52.253339 573.000000
52.268669 595.000000
52.283998 623.000000
52.299327 631.000000
52.314657 607.000000
52.329986 591.000000
52.345316 592.000000
52.360645 590.000000
52.375974 601.000000
52.391304 550.000000
52.406633 639.000000
52.421962 598.000000
52.437292 546.000000
52.452621 586.000000
52.467951 589.000000
52.483280 604.000000
52.498609 588.000000
52.513939 586.000000
52.529268 590.000000
52.544598 571.000000
52.559927 622.000000
52.575256 565.000000
52.590586 578.000000
52.605915 554.000000
52.621245 578.000000
52.636574 570.000000
52.651903 613.000000
52.667233 551.000000
52.682562 635.000000
52.697892 609.000000
52.713221 642.000000
52.728550 613.000000
52.743880 635.000000
52.759209 608.000000
52.774539 595.000000
52.789868 639.000000
52.805197 633.000000
52.820527 605.000000
52.835856 637.000000
52.851185 605.000000
52.866515 606.000000
52.881844 568.000000
52.897174 601.000000
52.912503 601.000000
52.927832 607.000000
52.943162 614.000000
52.958491 559.000000
52.973821 652.000000
52.989150 589.000000
53.004479 605.000000
53.019809 611.000000
53.035138 604.000000
53.050468 548.000000
53.065797 631.000000
53.081126 604.000000
53.096456 607.000000
53.111785 544.000000
53.127115 611.000000
53.142444 567.000000
53.157773 633.000000
53.173103 596.000000
53.188432 564.000000
53.203762 565.000000
53.219091 567.000000
53.234420 617.000000
53.249750 585.000000
53.265079 586.000000
53.280408 542.000000
53.295738 584.000000
53.311067 566.000000
53.326397 554.000000
53.341726 556.000000
53.357055 626.000000
53.372385 544.000000
53.387714 504.000000
53.403044 565.000000
53.418373 571.000000
53.433702 577.000000
53.449032 558.000000
53.464361 572.000000
53.479691 572.000000
53.495020 518.000000
53.510349 577.000000
53.525679 603.000000
53.541008 586.000000
53.556338 554.000000
53.571667 545.000000
53.586996 552.000000
53.602326 565.000000
53.617655 573.000000
53.632985 582.000000
53.648314 581.000000
53.663643 528.000000
53.678973 589.000000
53.694302 590.000000
53.709631 574.000000
53.724961 561.000000
53.740290 568.000000
53.755620 575.000000
53.770949 558.000000
53.786278 600.000000
53.801608 591.000000
53.816937 533.000000
53.832267 626.000000
53.847596 642.000000
53.862925 630.000000
53.878255 612.000000
53.893584 623.000000
53.908914 636.000000
53.924243 615.000000
53.939572 646.000000
53.954902 667.000000
53.970231 649.000000
53.985561 653.000000
54.000890 721.000000
54.016219 741.000000
54.031549 685.000000
54.046878 767.000000
54.062208 724.000000
54.077537 715.000000
54.092866 733.000000
54.108196 761.000000
54.123525 700.000000
54.138854 775.000000
54.154184 752.000000
54.169513 830.000000
54.184843 796.000000
54.200172 855.000000
54.215501 872.000000
54.230831 939.000000
54.246160 911.000000
54.261490 1075.000000
54.276819 1135.000000
54.292148 1213.000000
54.307478 1268.000000
54.322807 1273.000000
54.338137 1199.000000
54.353466 1070.000000
54.368795 996.000000
54.384125 999.000000
54.399454 956.000000
54.414784 952.000000
54.430113 978.000000
54.445442 972.000000
54.460772 987.000000
54.476101 943.000000
54.491431 879.000000
54.506760 847.000000
54.522089 767.000000
54.537419 722.000000
54.552748 653.000000
54.568077 657.000000
54.583407 684.000000
54.598736 698.000000
54.614066 671.000000
54.629395 603.000000
54.644724 621.000000
54.660054 626.000000
54.675383 628.000000
54.690713 587.000000
54.706042 608.000000
54.721371 667.000000
54.736701 655.000000
54.752030 707.000000
54.767360 702.000000
54.782689 725.000000
54.798018 795.000000
54.813348 855.000000
54.828677 851.000000
54.844007 956.000000
54.859336 861.000000
54.874665 798.000000
54.889995 688.000000
54.905324 747.000000
54.920654 744.000000
54.935983 701.000000
54.951312 776.000000
54.966642 845.000000
54.981971 764.000000
54.997300 779.000000
55.012630 734.000000
55.027959 702.000000
55.043289 709.000000
55.058618 660.000000
55.073947 633.000000
55.089277 644.000000
55.104606 608.000000
55.119936 628.000000
55.135265 614.000000
55.150594 630.000000
55.165924 588.000000
55.181253 672.000000
55.196583 645.000000
55.211912 621.000000
55.227241 633.000000
55.242571 698.000000
55.257900 680.000000
55.273230 718.000000
55.288559 724.000000
55.303888 689.000000
55.319218 700.000000
55.334547 665.000000
55.349877 640.000000
55.365206 675.000000
55.380535 649.000000
55.395865 610.000000
55.411194 665.000000
55.426523 680.000000
55.441853 702.000000
55.457182 670.000000
55.472512 582.000000
55.487841 679.000000
55.503170 602.000000
55.518500 656.000000
55.533829 656.000000
55.549159 612.000000
55.564488 593.000000
55.579817 534.000000
55.595147 531.000000
55.610476 533.000000
55.625806 562.000000
55.641135 527.000000
55.656464 589.000000
55.671794 566.000000
55.687123 544.000000
55.702453 538.000000
55.717782 555.000000
55.733111 523.000000
55.748441 561.000000
55.763770 560.000000
55.779100 533.000000
55.794429 546.000000
55.809758 536.000000
55.825088 525.000000
55.840417 574.000000
55.855746 541.000000
55.871076 554.000000
55.886405 578.000000
55.901735 580.000000
55.917064 578.000000
55.932393 572.000000
55.947723 537.000000
55.963052 553.000000
55.978382 563.000000
55.993711 566.000000
56.009040 569.000000
56.024370 593.000000
56.039699 591.000000
56.055029 554.000000
56.070358 586.000000
56.085687 581.000000
56.101017 565.000000
56.116346 528.000000
56.131676 624.000000
56.147005 613.000000
56.162334 572.000000
56.177664 586.000000
56.192993 618.000000
56.208323 558.000000
56.223652 586.000000
56.238981 589.000000
56.254311 594.000000
56.269640 614.000000
56.284969 625.000000
56.300299 596.000000
56.315628 588.000000
56.330958 603.000000
56.346287 568.000000
56.361616 599.000000
56.376946 629.000000
56.392275 623.000000
56.407605 714.000000
56.422934 676.000000
56.438263 701.000000
56.453593 737.000000
56.468922 760.000000
56.484252 774.000000
56.499581 820.000000
56.514910 906.000000
56.530240 932.000000
56.545569 930.000000
56.560899 984.000000
56.576228 1098.000000
56.591557 1055.000000
56.606887 974.000000
56.622216 892.000000
56.637546 845.000000
56.652875 881.000000
56.668204 803.000000
56.683534 847.000000
56.698863 858.000000
56.714192 838.000000
56.729522 812.000000
56.744851 797.000000
56.760181 767.000000
56.775510 706.000000
56.790839 678.000000
56.806169 657.000000
56.821498 614.000000
56.836828 579.000000
56.852157 592.000000
56.867486 600.000000
56.882816 565.000000
56.898145 570.000000
56.913475 612.000000
56.928804 562.000000
56.944133 579.000000
56.959463 574.000000
56.974792 553.000000
56.990122 597.000000
57.005451 589.000000
57.020780 558.000000
57.036110 627.000000
57.051439 572.000000
57.066769 627.000000
57.082098 607.000000
57.097427 650.000000
57.112757 592.000000
57.128086 618.000000
57.143415 644.000000
57.158745 673.000000
57.174074 719.000000
57.189404 809.000000
57.204733 781.000000
57.220062 790.000000
57.235392 805.000000
57.250721 811.000000
57.266051 918.000000
57.281380 1000.000000
57.296709 1116.000000
57.312039 1112.000000
57.327368 1266.000000
57.342698 1313.000000
57.358027 1512.000000
57.373356 1659.000000
57.388686 1713.000000
57.404015 1826.000000
57.419345 1909.000000
57.434674 1719.000000
57.450003 1640.000000
57.465333 1583.000000
57.480662 1437.000000
57.495992 1273.000000
57.511321 1314.000000
57.526650 1283.000000
57.541980 1360.000000
57.557309 1313.000000
57.572638 1230.000000
57.587968 1205.000000
57.603297 1115.000000
57.618627 990.000000
57.633956 900.000000
57.649285 861.000000
57.664615 766.000000
57.679944 688.000000
57.695274 692.000000
57.710603 658.000000
57.725932 647.000000
57.741262 603.000000
57.756591 693.000000
57.771921 667.000000
57.787250 597.000000
57.802579 594.000000
57.817909 583.000000
57.833238 635.000000
57.848568 613.000000
57.863897 577.000000
57.879226 576.000000
57.894556 607.000000
57.909885 657.000000
57.925215 641.000000
57.940544 679.000000
57.955873 665.000000
57.971203 720.000000
57.986532 680.000000
58.001861 687.000000
58.017191 737.000000
58.032520 767.000000
58.047850 762.000000
58.063179 752.000000
58.078508 799.000000
58.093838 807.000000
58.109167 804.000000
58.124497 777.000000
58.139826 813.000000
58.155155 800.000000
58.170485 808.000000
58.185814 812.000000
58.201144 798.000000
58.216473 788.000000
58.231802 850.000000
58.247132 776.000000
58.262461 733.000000
58.277791 790.000000
58.293120 759.000000
58.308449 692.000000
58.323779 725.000000
58.339108 748.000000
58.354438 757.000000
58.369767 676.000000
58.385096 694.000000
58.400426 640.000000
58.415755 660.000000
58.431084 708.000000
58.446414 660.000000
58.461743 618.000000
58.477073 605.000000
58.492402 669.000000
58.507731 660.000000
58.523061 606.000000
58.538390 607.000000
58.553720 601.000000
58.569049 581.000000
58.584378 578.000000
58.599708 605.000000
58.615037 606.000000
58.630367 628.000000
58.645696 600.000000
58.661025 590.000000
58.676355 571.000000
58.691684 578.000000
58.707014 556.000000
58.722343 550.000000
58.737672 575.000000
58.753002 569.000000
58.768331 589.000000
58.783661 560.000000
58.798990 562.000000
58.814319 566.000000
58.829649 577.000000
58.844978 538.000000
58.860307 545.000000
58.875637 550.000000
58.890966 506.000000
58.906296 506.000000
58.921625 533.000000
58.936954 536.000000
58.952284 530.000000
58.967613 547.000000
58.982943 509.000000
58.998272 502.000000
59.013601 515.000000
59.028931 512.000000
59.044260 526.000000
59.059590 527.000000
59.074919 542.000000
59.090248 496.000000
59.105578 509.000000
59.120907 529.000000
59.136237 497.000000
59.151566 476.000000
59.166895 507.000000
59.182225 556.000000
59.197554 495.000000
59.212884 495.000000
59.228213 569.000000
59.243542 528.000000
59.258872 492.000000
59.274201 513.000000
59.289530 628.000000
59.304860 590.000000
59.320189 608.000000
59.335519 630.000000
59.350848 615.000000
59.366177 579.000000
59.381507 549.000000
59.396836 543.000000
59.412166 557.000000
59.427495 558.000000
59.442824 546.000000
59.458154 558.000000
59.473483 594.000000
59.488813 548.000000
59.504142 563.000000
59.519471 547.000000
59.534801 551.000000
59.550130 559.000000
59.565460 558.000000
59.580789 544.000000
59.596118 591.000000
59.611448 548.000000
59.626777 562.000000
59.642107 572.000000
59.657436 545.000000
59.672765 608.000000
59.688095 566.000000
59.703424 549.000000
59.718753 584.000000
59.734083 570.000000
59.749412 583.000000
59.764742 610.000000
59.780071 599.000000
59.795400 664.000000
59.810730 627.000000
59.826059 723.000000
59.841389 735.000000
59.856718 849.000000
59.872047 967.000000
59.887377 1174.000000
59.902706 1198.000000
59.918036 1289.000000
59.933365 1236.000000
59.948694 1045.000000
59.964024 908.000000
59.979353 770.000000
59.994683 756.000000
60.010012 770.000000
60.025341 778.000000
60.040671 809.000000
60.056000 812.000000
60.071330 922.000000
60.086659 941.000000
60.101988 870.000000
60.117318 821.000000
60.132647 666.000000
60.147976 687.000000
60.163306 647.000000
60.178635 575.000000
60.193965 585.000000
60.209294 569.000000
60.224623 555.000000
60.239953 598.000000
60.255282 593.000000
60.270612 569.000000
60.285941 577.000000
60.301270 574.000000
60.316600 581.000000
60.331929 586.000000
60.347259 559.000000
60.362588 608.000000
60.377917 550.000000
60.393247 573.000000
60.408576 592.000000
60.423906 620.000000
60.439235 617.000000
60.454564 629.000000
60.469894 689.000000
60.485223 635.000000
60.500553 711.000000
60.515882 731.000000
60.531211 758.000000
60.546541 796.000000
60.561870 910.000000
60.577199 887.000000
60.592529 930.000000
60.607858 1073.000000
60.623188 1106.000000
60.638517 1189.000000
60.653846 1349.000000
60.669176 1419.000000
60.684505 1392.000000
60.699835 1405.000000
60.715164 1306.000000
60.730493 1207.000000
60.745823 1216.000000
60.761152 1110.000000
60.776482 1081.000000
60.791811 1056.000000
60.807140 1045.000000
60.822470 1071.000000
60.837799 1144.000000
60.853129 1089.000000
60.868458 1058.000000
60.883787 1069.000000
60.899117 1043.000000
60.914446 975.000000
60.929776 993.000000
60.945105 957.000000
60.960434 942.000000
60.975764 984.000000
60.991093 1003.000000
61.006422 989.000000
61.021752 917.000000
61.037081 917.000000
61.052411 896.000000
61.067740 878.000000
61.083069 837.000000
61.098399 798.000000
61.113728 845.000000
61.129058 880.000000
61.144387 835.000000
61.159716 827.000000
61.175046 847.000000
61.190375 809.000000
61.205705 793.000000
61.221034 759.000000
61.236363 815.000000
61.251693 782.000000
61.267022 791.000000
61.282352 873.000000
61.297681 822.000000
61.313010 818.000000
61.328340 917.000000
61.343669 848.000000
61.358999 908.000000
61.374328 915.000000
61.389657 938.000000
61.404987 897.000000
61.420316 863.000000
61.435645 828.000000
61.450975 852.000000
61.466304 842.000000
61.481634 799.000000
61.496963 828.000000
61.512292 834.000000
61.527622 770.000000
61.542951 818.000000
61.558281 726.000000
61.573610 748.000000
61.588939 768.000000
61.604269 724.000000
61.619598 717.000000
61.634928 713.000000
61.650257 692.000000
61.665586 654.000000
61.680916 632.000000
61.696245 684.000000
61.711575 657.000000
61.726904 624.000000
61.742233 612.000000
61.757563 562.000000
61.772892 682.000000
61.788222 687.000000
61.803551 594.000000
61.818880 669.000000
61.834210 619.000000
61.849539 651.000000
61.864868 538.000000
61.880198 598.000000
61.895527 602.000000
61.910857 583.000000
61.926186 560.000000
61.941515 496.000000
61.956845 548.000000
61.972174 556.000000
61.987504 571.000000
62.002833 528.000000
62.018162 521.000000
62.033492 514.000000
62.048821 565.000000
62.064151 490.000000
62.079480 514.000000
62.094809 521.000000
62.110139 484.000000
62.125468 539.000000
62.140798 554.000000
62.156127 500.000000
62.171456 584.000000
62.186786 523.000000
62.202115 544.000000
62.217445 559.000000
62.232774 526.000000
62.248103 588.000000
62.263433 596.000000
62.278762 613.000000
62.294091 606.000000
62.309421 562.000000
62.324750 572.000000
62.340080 602.000000
62.355409 613.000000
62.370738 640.000000
62.386068 672.000000
62.401397 657.000000
62.416727 644.000000
62.432056 717.000000
62.447385 699.000000
62.462715 708.000000
62.478044 772.000000
62.493374 778.000000
62.508703 819.000000
62.524032 823.000000
62.539362 840.000000
62.554691 872.000000
62.570021 791.000000
62.585350 870.000000
62.600679 852.000000
62.616009 791.000000
62.631338 783.000000
62.646668 760.000000
62.661997 771.000000
62.677326 723.000000
62.692656 741.000000
62.707985 758.000000
62.723314 750.000000
62.738644 726.000000
62.753973 671.000000
62.769303 710.000000
62.784632 679.000000
62.799961 655.000000
62.815291 681.000000
62.830620 694.000000
62.845950 671.000000
62.861279 611.000000
62.876608 595.000000
62.891938 612.000000
62.907267 639.000000
62.922597 593.000000
62.937926 600.000000
62.953255 642.000000
62.968585 677.000000
62.983914 667.000000
62.999244 697.000000
63.014573 676.000000
63.029902 698.000000
63.045232 759.000000
63.060561 762.000000
63.075891 757.000000
63.091220 767.000000
63.106549 728.000000
63.121879 736.000000
63.137208 735.000000
63.152537 656.000000
63.167867 677.000000
63.183196 718.000000
63.198526 673.000000
63.213855 665.000000
63.229184 682.000000
63.244514 717.000000
63.259843 671.000000
63.275173 626.000000
63.290502 624.000000
63.305831 666.000000
63.321161 642.000000
63.336490 611.000000
63.351820 587.000000
63.367149 607.000000
63.382478 550.000000
63.397808 560.000000
63.413137 539.000000
63.428467 522.000000
63.443796 524.000000
63.459125 535.000000
63.474455 566.000000
63.489784 543.000000
63.505114 510.000000
63.520443 547.000000
63.535772 523.000000
63.551102 584.000000
63.566431 534.000000
63.581760 496.000000
63.597090 484.000000
63.612419 533.000000
63.627749 481.000000
63.643078 506.000000
63.658407 520.000000
63.673737 503.000000
63.689066 455.000000
63.704396 533.000000
63.719725 460.000000
63.735054 471.000000
63.750384 506.000000
63.765713 483.000000
63.781043 448.000000
63.796372 463.000000
63.811701 497.000000
63.827031 492.000000
63.842360 481.000000
63.857690 509.000000
63.873019 595.000000
63.888348 558.000000
63.903678 527.000000
63.919007 629.000000
63.934337 559.000000
63.949666 630.000000
63.964995 715.000000
63.980325 739.000000
63.995654 781.000000
64.010983 702.000000
64.026313 728.000000
64.041642 758.000000
64.056972 676.000000
64.072301 729.000000
64.087630 633.000000
64.102960 713.000000
64.118289 768.000000
64.133619 890.000000
64.148948 843.000000
64.164277 920.000000
64.179607 866.000000
64.194936 951.000000
64.210266 977.000000
64.225595 926.000000
64.240924 872.000000
64.256254 864.000000
64.271583 795.000000
64.286913 775.000000
64.302242 767.000000
64.317571 733.000000
64.332901 737.000000
64.348230 706.000000
64.363560 772.000000
64.378889 764.000000
64.394218 719.000000
64.409548 818.000000
64.424877 755.000000
64.440206 747.000000
64.455536 784.000000
64.470865 724.000000
64.486195 803.000000
64.501524 772.000000
64.516853 762.000000
64.532183 764.000000
64.547512 794.000000
64.562842 823.000000
64.578171 920.000000
64.593500 890.000000
64.608830 989.000000
64.624159 1014.000000
64.639489 1156.000000
64.654818 1213.000000
64.670147 1314.000000
64.685477 1253.000000
64.700806 1336.000000
64.716136 1227.000000
64.731465 1166.000000
64.746794 1013.000000
64.762124 959.000000
64.777453 953.000000
64.792783 967.000000
64.808112 914.000000
64.823441 930.000000
64.838771 963.000000
64.854100 954.000000
64.869429 843.000000
64.884759 853.000000
64.900088 819.000000
64.915418 752.000000
64.930747 753.000000
64.946076 688.000000
64.961406 615.000000
64.976735 590.000000
64.992065 583.000000
65.007394 535.000000
65.022723 546.000000
65.038053 525.000000
65.053382 516.000000
65.068712 584.000000
65.084041 451.000000
65.099370 500.000000
65.114700 511.000000
65.130029 476.000000
65.145359 518.000000
65.160688 512.000000
65.176017 473.000000
65.191347 496.000000
65.206676 490.000000
65.222006 453.000000
65.237335 487.000000
65.252664 491.000000
65.267994 528.000000
65.283323 508.000000
65.298652 467.000000
65.313982 483.000000
65.329311 452.000000
65.344641 470.000000
65.359970 488.000000
65.375299 432.000000
65.390629 445.000000
65.405958 500.000000
65.421288 564.000000
65.436617 545.000000
65.451946 537.000000
65.467276 570.000000
65.482605 524.000000
65.497935 588.000000
65.513264 650.000000
65.528593 656.000000
65.543923 717.000000
65.559252 736.000000
65.574582 746.000000
65.589911 789.000000
65.605240 806.000000
65.620570 764.000000
65.635899 755.000000
65.651229 720.000000
65.666558 677.000000
65.681887 690.000000
65.697217 646.000000
65.712546 671.000000
65.727875 706.000000
65.743205 695.000000
65.758534 638.000000
65.773864 652.000000
65.789193 603.000000
65.804522 556.000000
65.819852 591.000000
65.835181 616.000000
65.850511 521.000000
65.865840 544.000000
65.881169 530.000000
65.896499 518.000000
65.911828 444.000000
65.927158 461.000000
65.942487 472.000000
65.957816 424.000000
65.973146 417.000000
65.988475 423.000000
66.003805 463.000000
66.019134 421.000000
66.034463 384.000000
66.049793 397.000000
66.065122 380.000000
66.080452 433.000000
66.095781 394.000000
66.111110 425.000000
66.126440 432.000000
66.141769 404.000000
66.157098 440.000000
66.172428 400.000000
66.187757 451.000000
66.203087 394.000000
66.218416 394.000000
66.233745 428.000000
66.249075 386.000000
66.264404 403.000000
66.279734 468.000000
66.295063 386.000000
66.310392 414.000000
66.325722 449.000000
66.341051 410.000000
66.356381 421.000000
66.371710 404.000000
66.387039 392.000000
66.402369 414.000000
66.417698 374.000000
66.433028 410.000000
66.448357 397.000000
66.463686 416.000000
66.479016 382.000000
66.494345 411.000000
66.509675 406.000000
66.525004 380.000000
66.540333 346.000000
66.555663 359.000000
66.570992 409.000000
66.586321 376.000000
66.601651 383.000000
66.616980 402.000000
66.632310 379.000000
66.647639 369.000000
66.662968 369.000000
66.678298 401.000000
66.693627 392.000000
66.708957 354.000000
66.724286 392.000000
66.739615 347.000000
66.754945 347.000000
66.770274 407.000000
66.785604 363.000000
66.800933 363.000000
66.816262 392.000000
66.831592 422.000000
66.846921 360.000000
66.862251 363.000000
66.877580 386.000000
66.892909 373.000000
66.908239 384.000000
66.923568 401.000000
66.938898 386.000000
66.954227 372.000000
66.969556 350.000000
66.984886 389.000000
67.000215 404.000000
67.015544 420.000000
67.030874 408.000000
67.046203 414.000000
67.061533 400.000000
67.076862 370.000000
67.092191 440.000000
67.107521 391.000000
67.122850 405.000000
67.138180 403.000000
67.153509 437.000000
67.168838 433.000000
67.184168 424.000000
67.199497 423.000000
67.214827 430.000000
67.230156 445.000000
67.245485 419.000000
67.260815 414.000000
67.276144 443.000000
67.291474 409.000000
67.306803 463.000000
67.322132 419.000000
67.337462 434.000000
67.352791 454.000000
67.368121 444.000000
67.383450 407.000000
67.398779 464.000000
67.414109 429.000000
67.429438 435.000000
67.444767 451.000000
67.460097 419.000000
67.475426 463.000000
67.490756 459.000000
67.506085 473.000000
67.521414 470.000000
67.536744 509.000000
67.552073 462.000000
67.567403 474.000000
67.582732 474.000000
67.598061 541.000000
67.613391 547.000000
67.628720 573.000000
67.644050 613.000000
67.659379 664.000000
67.674708 752.000000
67.690038 799.000000
67.705367 824.000000
67.720697 769.000000
67.736026 748.000000
67.751355 674.000000
67.766685 610.000000
67.782014 601.000000
67.797344 616.000000
67.812673 573.000000
67.828002 606.000000
67.843332 634.000000
67.858661 621.000000
67.873990 702.000000
67.889320 671.000000
67.904649 679.000000
67.919979 676.000000
67.935308 650.000000
67.950637 657.000000
67.965967 625.000000
67.981296 576.000000
67.996626 625.000000
68.011955 639.000000
68.027284 629.000000
68.042614 676.000000
68.057943 782.000000
68.073273 778.000000
68.088602 925.000000
68.103931 996.000000
68.119261 1022.000000
68.134590 971.000000
68.149920 838.000000
68.165249 729.000000
68.180578 733.000000
68.195908 685.000000
68.211237 683.000000
68.226566 733.000000
68.241896 726.000000
68.257225 828.000000
68.272555 863.000000
68.287884 921.000000
68.303213 836.000000
68.318543 790.000000
68.333872 741.000000
68.349202 669.000000
68.364531 584.000000
68.379860 590.000000
68.395190 513.000000
68.410519 523.000000
68.425849 491.000000
68.441178 549.000000
68.456507 477.000000
68.471837 504.000000
68.487166 527.000000
68.502496 516.000000
68.517825 479.000000
68.533154 423.000000
68.548484 434.000000
68.563813 412.000000
68.579143 431.000000
68.594472 392.000000
68.609801 411.000000
68.625131 415.000000
68.640460 367.000000
68.655789 386.000000
68.671119 391.000000
68.686448 381.000000
68.701778 407.000000
68.717107 371.000000
68.732436 386.000000
68.747766 389.000000
68.763095 394.000000
68.778425 364.000000
68.793754 369.000000
68.809083 367.000000
68.824413 380.000000
68.839742 397.000000
68.855072 376.000000
68.870401 350.000000
68.885730 342.000000
68.901060 356.000000
68.916389 377.000000
68.931719 375.000000
68.947048 396.000000
68.962377 420.000000
68.977707 416.000000
68.993036 403.000000
69.008366 380.000000
69.023695 379.000000
69.039024 460.000000
69.054354 439.000000
69.069683 399.000000
69.085012 465.000000
69.100342 470.000000
69.115671 403.000000
69.131001 478.000000
69.146330 478.000000
69.161659 485.000000
69.176989 528.000000
69.192318 510.000000
69.207648 542.000000
69.222977 502.000000
69.238306 483.000000
69.253636 477.000000
69.268965 479.000000
69.284295 490.000000
69.299624 473.000000
69.314953 464.000000
69.330283 434.000000
69.345612 441.000000
69.360942 480.000000
69.376271 448.000000
69.391600 459.000000
69.406930 411.000000
69.422259 425.000000
69.437589 404.000000
69.452918 406.000000
69.468247 440.000000
69.483577 376.000000
69.498906 406.000000
69.514235 437.000000
69.529565 373.000000
69.544894 365.000000
69.560224 404.000000
69.575553 369.000000
69.590882 354.000000
69.606212 349.000000
69.621541 387.000000
69.636871 383.000000
69.652200 414.000000
69.667529 373.000000
69.682859 391.000000
69.698188 350.000000
69.713518 375.000000
69.728847 375.000000
69.744176 345.000000
69.759506 386.000000
69.774835 407.000000
69.790165 381.000000
69.805494 367.000000
69.820823 411.000000
69.836153 385.000000
69.851482 373.000000
69.866812 399.000000
69.882141 377.000000
69.897470 403.000000
69.912800 379.000000
69.928129 392.000000
69.943458 398.000000
69.958788 373.000000
69.974117 381.000000
69.989447 427.000000
70.004776 391.000000
70.020105 445.000000
70.035435 428.000000
70.050764 465.000000
70.066094 438.000000
70.081423 481.000000
70.096752 439.000000
70.112082 492.000000
70.127411 495.000000
70.142741 479.000000
70.158070 530.000000
70.173399 492.000000
70.188729 525.000000
70.204058 538.000000
70.219388 567.000000
70.234717 571.000000
70.250046 543.000000
70.265376 536.000000
70.280705 565.000000
70.296035 557.000000
70.311364 586.000000
70.326693 542.000000
70.342023 521.000000
70.357352 550.000000
70.372681 550.000000
70.388011 520.000000
70.403340 501.000000
70.418670 482.000000
70.433999 495.000000
70.449328 455.000000
70.464658 457.000000
70.479987 461.000000
70.495317 468.000000
70.510646 436.000000
70.525975 434.000000
70.541305 455.000000
70.556634 379.000000
70.571964 409.000000
70.587293 400.000000
70.602622 428.000000
70.617952 394.000000
70.633281 428.000000
70.648611 391.000000
70.663940 407.000000
70.679269 368.000000
70.694599 382.000000
70.709928 390.000000
70.725258 386.000000
70.740587 399.000000
70.755916 395.000000
70.771246 337.000000
70.786575 358.000000
70.801904 357.000000
70.817234 379.000000
70.832563 379.000000
70.847893 368.000000
70.863222 325.000000
70.878551 388.000000
70.893881 371.000000
70.909210 407.000000
70.924540 408.000000
70.939869 362.000000
70.955198 414.000000
70.970528 389.000000
70.985857 387.000000
71.001187 371.000000
71.016516 387.000000
71.031845 403.000000
71.047175 369.000000
71.062504 413.000000
71.077834 391.000000
71.093163 409.000000
71.108492 352.000000
71.123822 412.000000
71.139151 397.000000
71.154481 370.000000
71.169810 368.000000
71.185139 391.000000
71.200469 422.000000
71.215798 372.000000
71.231127 404.000000
71.246457 376.000000
71.261786 415.000000
71.277116 402.000000
71.292445 396.000000
71.307774 422.000000
71.323104 407.000000
71.338433 402.000000
71.353763 417.000000
71.369092 429.000000
71.384421 436.000000
71.399751 422.000000
71.415080 437.000000
71.430410 474.000000
71.445739 456.000000
71.461068 438.000000
71.476398 406.000000
71.491727 488.000000
71.507057 452.000000
71.522386 454.000000
71.537715 439.000000
71.553045 479.000000
71.568374 446.000000
71.583704 500.000000
71.599033 466.000000
71.614362 484.000000
71.629692 532.000000
71.645021 529.000000
71.660350 547.000000
71.675680 589.000000
71.691009 608.000000
71.706339 593.000000
71.721668 602.000000
71.736997 651.000000
71.752327 607.000000
71.767656 659.000000
71.782986 658.000000
71.798315 592.000000
71.813644 586.000000
71.828974 570.000000
71.844303 587.000000
71.859633 536.000000
71.874962 547.000000
71.890291 561.000000
71.905621 573.000000
71.920950 554.000000
71.936280 527.000000
71.951609 585.000000
71.966938 540.000000
71.982268 562.000000
71.997597 521.000000
72.012927 525.000000
72.028256 488.000000
72.043585 472.000000
72.058915 479.000000
72.074244 477.000000
72.089573 472.000000
72.104903 465.000000
72.120232 456.000000
72.135562 423.000000
72.150891 411.000000
72.166220 419.000000
72.181550 427.000000
72.196879 408.000000
72.212209 418.000000
72.227538 423.000000
72.242867 407.000000
72.258197 419.000000
72.273526 417.000000
72.288856 413.000000
72.304185 409.000000
72.319514 391.000000
72.334844 378.000000
72.350173 375.000000
72.365503 426.000000
72.380832 400.000000
72.396161 373.000000
72.411491 357.000000
72.426820 382.000000
72.442150 438.000000
72.457479 406.000000
72.472808 390.000000
72.488138 392.000000
72.503467 376.000000
72.518796 399.000000
72.534126 423.000000
72.549455 422.000000
72.564785 441.000000
72.580114 432.000000
72.595443 447.000000
72.610773 431.000000
72.626102 385.000000
72.641432 444.000000
72.656761 414.000000
72.672090 460.000000
72.687420 471.000000
72.702749 458.000000
72.718079 472.000000
72.733408 469.000000
72.748737 527.000000
72.764067 525.000000
72.779396 556.000000
72.794726 556.000000
72.810055 575.000000
72.825384 618.000000
72.840714 616.000000
72.856043 646.000000
72.871373 678.000000
72.886702 700.000000
72.902031 732.000000
72.917361 771.000000
72.932690 778.000000
72.948019 736.000000
72.963349 638.000000
72.978678 638.000000
72.994008 619.000000
73.009337 582.000000
73.024666 639.000000
73.039996 633.000000
73.055325 562.000000
73.070655 592.000000
73.085984 607.000000
73.101313 558.000000
73.116643 594.000000
