10,48670.8
10.02,48429.2
10.04,48966.7
10.06,48329.2
10.08,48691.7
10.1,49029.2
10.12,49041.7
10.14,47683.3
10.16,48508.3
10.18,48866.7
10.2,47658.3
10.22,48558.3
10.24,48812.5
10.26,48508.3
10.28,47670.8
10.3,47775
10.32,47420.8
10.34,47720.8
10.36,47712.5
10.38,47787.5
10.4,47858.3
10.42,47562.5
10.44,48462.5
10.46,47600
10.48,47662.5
10.5,47379.2
10.52,48104.2
10.54,46945.8
10.56,47816.7
10.58,47183.3
10.6,47429.2
10.62,46879.2
10.64,47116.7
10.66,47070.8
10.68,46629.2
10.7,46850
10.72,46795.8
10.74,46608.3
10.76,46812.5
10.78,46620.8
10.8,46354.2
10.82,46387.5
10.84,46533.3
10.86,44825
10.88,46716.7
10.9,45508.3
10.92,46325
10.94,46237.5
10.96,46041.7
10.98,45862.5
11,45325
11.02,44950
11.04,45866.7
11.06,45966.7
11.08,45612.5
11.1,46295.8
11.12,45579.2
11.14,45287.5
11.16,44770.8
11.18,45470.8
11.2,45495.8
11.22,45679.2
11.24,44741.7
11.26,45366.7
11.28,45041.7
11.3,45333.3
11.32,45241.7
11.34,44337.5
11.36,45345.8
11.38,45175
11.4,45087.5
11.42,44591.7
11.44,44595.8
11.46,44525
11.48,43362.5
11.5,44375
11.52,44283.3
11.54,44866.7
11.56,44425
11.58,44679.2
11.6,44216.7
11.62,43962.5
11.64,44050
11.66,43791.7
11.68,43458.3
11.7,43966.7
11.72,43804.2
11.74,43241.7
11.76,43225
11.78,43212.5
11.8,44075
11.82,43070.8
11.84,42829.2
11.86,42637.5
11.88,43562.5
11.9,43420.8
11.92,43716.7
11.94,43079.2
11.96,42679.2
11.98,43012.5
12,42279.2
12.02,42716.7
12.04,43233.3
12.06,42370.8
12.08,42550
12.1,42529.2
12.12,42766.7
12.14,42950
12.16,42291.7
12.18,42650
12.2,41833.3
12.22,42658.3
12.24,42075
12.26,42287.5
12.28,42808.3
12.3,42625
12.32,42016.7
12.34,42241.7
12.36,42379.2
12.38,41791.7
12.4,41650
12.42,41354.2
12.44,41745.8
12.46,41445.8
12.48,41187.5
12.5,41304.2
12.52,41479.2
12.54,41483.3
12.56,41612.5
12.58,41729.2
12.6,41866.7
12.62,41041.7
12.64,41225
12.66,41083.3
12.68,41500
12.7,41570.8
12.72,40500
12.74,40866.7
12.76,40612.5
12.78,40650
12.8,41275
12.82,41441.7
12.84,40595.8
12.86,40620.8
12.88,41237.5
12.9,40429.2
12.92,40379.2
12.94,41133.3
12.96,40341.7
12.98,40870.8
13,40712.5
13.02,40775
13.04,40766.7
13.06,40600
13.08,41179.2
13.1,40591.7
13.12,40558.3
13.14,40083.3
13.16,40879.2
13.18,41245.8
13.2,40137.5
13.22,40191.7
13.24,40012.5
13.26,40158.3
13.28,39962.5
13.3,40491.7
13.32,40329.2
13.34,39825
13.36,40683.3
13.38,39470.8
13.4,40183.3
13.42,40683.3
13.44,40233.3
13.46,39754.2
13.48,40475
13.5,40325
13.52,40562.5
13.54,40520.8
13.56,40387.5
13.58,40416.7
13.6,40754.2
13.62,40312.5
13.64,39616.7
13.66,40158.3
13.68,40291.7
13.7,40208.3
13.72,39170.8
13.74,39554.2
13.76,39516.7
13.78,40150
13.8,39958.3
13.82,40087.5
13.84,39900
13.86,40145.8
13.88,40062.5
13.9,39333.3
13.92,40129.2
13.94,39912.5
13.96,39762.5
13.98,39450
14,39645.8
14.02,39866.7
14.04,40050
14.06,40129.2
14.08,39441.7
14.1,39945.8
14.12,39662.5
14.14,39854.2
14.16,39979.2
14.18,39112.5
14.2,39883.3
14.22,38741.7
14.24,40041.7
14.26,39241.7
14.28,40066.7
14.3,40066.7
14.32,39870.8
14.34,40083.3
14.36,39720.8
14.38,39770.8
14.4,39475
14.42,39304.2
14.44,40237.5
14.46,40016.7
14.48,39408.3
14.5,39425
14.52,39608.3
14.54,39583.3
14.56,39408.3
14.58,40129.2
14.6,39900
14.62,39991.7
14.64,39833.3
14.66,40450
14.68,40033.3
14.7,40641.7
14.72,39854.2
14.74,40600
14.76,39637.5
14.78,40416.7
14.8,40270.8
14.82,39858.3
14.84,40550
14.86,40083.3
14.88,40616.7
14.9,39312.5
14.92,39366.7
14.94,40287.5
14.96,39829.2
14.98,40554.2
15,40295.8
15.02,39700
15.04,40358.3
15.06,40479.2
15.08,39862.5
15.1,39912.5
15.12,40562.5
15.14,40391.7
15.16,40975
15.18,40158.3
15.2,41112.5
15.22,40537.5
15.24,39337.5
15.26,40712.5
15.28,40091.7
15.3,40754.2
15.32,40591.7
15.34,40283.3
15.36,40275
15.38,41100
15.4,40579.2
15.42,40420.8
15.44,40850
15.46,40820.8
15.48,40908.3
15.5,40845.8
15.52,40200
15.54,40170.8
15.56,41104.2
15.58,41000
15.6,41445.8
15.62,41195.8
15.64,40733.3
15.66,40933.3
15.68,40600
15.7,40470.8
15.72,40412.5
15.74,41095.8
15.76,40441.7
15.78,41087.5
15.8,41575
15.82,41341.7
15.84,41066.7
15.86,40795.8
15.88,40325
15.9,41333.3
15.92,40979.2
15.94,41083.3
15.96,40650
15.98,41516.7
16,40787.5
16.02,40625
16.04,41795.8
16.06,41525
16.08,40875
16.1,41845.8
16.12,40845.8
16.14,41266.7
16.16,41516.7
16.18,42037.5
16.2,42237.5
16.22,41429.2
16.24,41329.2
16.26,41291.7
16.28,42125
16.3,40933.3
16.32,41554.2
16.34,42050
16.36,42054.2
16.38,41558.3
16.4,41750
16.42,41445.8
16.44,42162.5
16.46,41266.7
16.48,41750
16.5,41341.7
16.52,41500
16.54,41633.3
16.56,41654.2
16.58,42050
16.6,41458.3
16.62,41466.7
16.64,42575
16.66,41891.7
16.68,42229.2
16.7,42291.7
16.72,42116.7
16.74,42233.3
16.76,41679.2
16.78,41775
16.8,42120.8
16.82,42216.7
16.84,41208.3
16.86,42029.2
16.88,41600
16.9,41725
16.92,42466.7
16.94,41358.3
16.96,41125
16.98,42262.5
17,41929.2
17.02,41570.8
17.04,41258.3
17.06,41666.7
17.08,41987.5
17.1,41916.7
17.12,42558.3
17.14,42708.3
17.16,41820.8
17.18,41654.2
17.2,41466.7
17.22,42250
17.24,42512.5
17.26,42412.5
17.28,42391.7
17.3,41545.8
17.32,42366.7
17.34,42491.7
17.36,42350
17.38,42558.3
17.4,42862.5
17.42,42679.2
17.44,42354.2
17.46,42375
17.48,42958.3
17.5,42429.2
17.52,42687.5
17.54,41879.2
17.56,42325
17.58,42345.8
17.6,42070.8
17.62,42150
17.64,41716.7
17.66,42325
17.68,41320.8
17.7,43183.3
17.72,42358.3
17.74,42262.5
17.76,42700
17.78,43054.2
17.8,42591.7
17.82,43345.8
17.84,41750
17.86,41837.5
17.88,42429.2
17.9,42341.7
17.92,42166.7
17.94,41925
17.96,41779.2
17.98,42204.2
18,41270.8
18.02,42895.8
18.04,42683.3
18.06,42787.5
18.08,42041.7
18.1,41820.8
18.12,42216.7
18.14,42183.3
18.16,42045.8
18.18,42462.5
18.2,42970.8
18.22,41912.5
18.24,42012.5
18.26,42454.2
18.28,42625
18.3,42175
18.32,41908.3
18.34,42654.2
18.36,41925
18.38,42912.5
18.4,42366.7
18.42,41745.8
18.44,42370.8
18.46,42112.5
18.48,42625
18.5,42675
18.52,42112.5
18.54,42670.8
18.56,42758.3
18.58,41729.2
18.6,41995.8
18.62,42220.8
18.64,41550
18.66,42425
18.68,41583.3
18.7,42266.7
18.72,41608.3
18.74,42762.5
18.76,41862.5
18.78,41570.8
18.8,41600
18.82,42645.8
18.84,41937.5
18.86,41291.7
18.88,41162.5
18.9,41841.7
18.92,42500
18.94,42162.5
18.96,42083.3
18.98,42612.5
19,41791.7
19.02,41975
19.04,42000
19.06,41766.7
19.08,42912.5
19.1,41962.5
19.12,41695.8
19.14,41379.2
19.16,41812.5
19.18,41904.2
19.2,42454.2
19.22,43095.8
19.24,41983.3
19.26,42479.2
19.28,41616.7
19.3,42179.2
19.32,41666.7
19.34,42741.7
19.36,42812.5
19.38,42312.5
19.4,41991.7
19.42,42433.3
19.44,42279.2
19.46,43104.2
19.48,43470.8
19.5,43066.7
19.52,43016.7
19.54,43837.5
19.56,43325
19.58,44608.3
19.6,43779.2
19.62,44016.7
19.64,44016.7
19.66,43625
19.68,43000
19.7,43033.3
19.72,42641.7
19.74,42004.2
19.76,42950
19.78,42854.2
19.8,42491.7
19.82,42912.5
19.84,41454.2
19.86,42041.7
19.88,41937.5
19.9,41629.2
19.92,41516.7
19.94,41462.5
19.96,41616.7
19.98,41562.5
20,41975
20.02,41529.2
20.04,41958.3
20.06,40895.8
20.08,41191.7
20.1,41204.2
20.12,41733.3
20.14,41358.3
20.16,41208.3
20.18,41387.5
20.2,41604.2
20.22,41495.8
20.24,41454.2
20.26,40979.2
20.28,40750
20.3,41279.2
20.32,40933.3
20.34,40295.8
20.36,40445.8
20.38,41445.8
20.4,41300
20.42,41158.3
20.44,41425
20.46,41766.7
20.48,42570.8
20.5,41779.2
20.52,41762.5
20.54,42095.8
20.56,42887.5
20.58,43954.2
20.6,43837.5
20.62,44525
20.64,44383.3
20.66,45395.8
20.68,46654.2
20.7,47533.3
20.72,48241.7
20.74,48266.7
20.76,47620.8
20.78,47808.3
20.8,45200
20.82,44450
20.84,44033.3
20.86,43583.3
20.88,43454.2
20.9,43595.8
20.92,43566.7
20.94,43637.5
20.96,43687.5
20.98,42775
21,42441.7
21.02,42150
21.04,42179.2
21.06,41895.8
21.08,41537.5
21.1,41070.8
21.12,41475
21.14,41154.2
21.16,40575
21.18,39908.3
21.2,41066.7
21.22,40108.3
21.24,39883.3
21.26,40262.5
21.28,40087.5
21.3,39987.5
21.32,40195.8
21.34,39925
21.36,40100
21.38,39650
21.4,39687.5
21.42,39650
21.44,39520.8
21.46,39895.8
21.48,40329.2
21.5,39400
21.52,40341.7
21.54,39183.3
21.56,38508.3
21.58,39600
21.6,39437.5
21.62,39370.8
21.64,39583.3
21.66,39633.3
21.68,39250
21.7,39808.3
21.72,39187.5
21.74,39766.7
21.76,39208.3
21.78,40150
21.8,39841.7
21.82,39791.7
21.84,38966.7
21.86,40254.2
21.88,39795.8
21.9,39070.8
21.92,39925
21.94,39120.8
21.96,39583.3
21.98,38916.7
22,39008.3
22.02,39420.8
22.04,38625
22.06,38891.7
22.08,39500
22.1,38720.8
22.12,38837.5
22.14,39270.8
22.16,39058.3
22.18,38900
22.2,38995.8
22.22,38441.7
22.24,38916.7
22.26,38870.8
22.28,39541.7
22.3,39787.5
22.32,38537.5
22.34,38091.7
22.36,39162.5
22.38,39170.8
22.4,38441.7
22.42,38795.8
22.44,38737.5
22.46,39833.3
22.48,38975
22.5,39233.3
22.52,38704.2
22.54,38733.3
22.56,38733.3
22.58,39487.5
22.6,39225
22.62,39070.8
22.64,39333.3
22.66,39495.8
22.68,38366.7
22.7,38495.8
22.72,37929.2
22.74,38733.3
22.76,38845.8
22.78,38679.2
22.8,38729.2
22.82,38791.7
22.84,38104.2
22.86,37604.2
22.88,38191.7
22.9,37695.8
22.92,37554.2
22.94,37879.2
22.96,38041.7
22.98,38429.2
23,37583.3
23.02,38587.5
23.04,37329.2
23.06,38320.8
23.08,37358.3
23.1,38320.8
23.12,38820.8
23.14,39308.3
23.16,38891.7
23.18,38520.8
23.2,39420.8
23.22,38512.5
23.24,38266.7
23.26,38645.8
23.28,39491.7
23.3,37500
23.32,39204.2
23.34,38600
23.36,38445.8
23.38,39433.3
23.4,39120.8
23.42,38875
23.44,38512.5
23.46,38279.2
23.48,38329.2
23.5,37866.7
23.52,37612.5
23.54,37754.2
23.56,37275
23.58,37012.5
23.6,37458.3
23.62,37966.7
23.64,37600
23.66,38954.2
23.68,38333.3
23.7,37770.8
23.72,38162.5
23.74,37575
23.76,38225
23.78,38416.7
23.8,38108.3
23.82,38575
23.84,38112.5
23.86,38545.8
23.88,38558.3
23.9,38250
23.92,38595.8
23.94,38300
23.96,37825
23.98,38450
24,38183.3
24.02,37591.7
24.04,37650
24.06,37929.2
24.08,38075
24.1,38495.8
24.12,37808.3
24.14,37754.2
24.16,37387.5
24.18,36937.5
24.2,37391.7
24.22,37416.7
24.24,38004.2
24.26,37612.5
24.28,37275
24.3,37341.7
24.32,37420.8
24.34,36154.2
24.36,36458.3
24.38,36566.7
24.4,36537.5
24.42,36595.8
24.44,36020.8
24.46,35775
24.48,36154.2
24.5,36225
24.52,36470.8
24.54,36179.2
24.56,36016.7
24.58,35608.3
24.6,35833.3
24.62,35891.7
24.64,36050
24.66,35750
24.68,35300
24.7,35616.7
24.72,35183.3
24.74,35679.2
24.76,35529.2
24.78,35354.2
24.8,36020.8
24.82,34987.5
24.84,35495.8
24.86,35425
24.88,36250
24.9,36220.8
24.92,34712.5
24.94,34991.7
24.96,34041.7
24.98,35554.2
25,35241.7
25.02,35929.2
25.04,36245.8
25.06,35337.5
25.08,35862.5
25.1,35583.3
25.12,35766.7
25.14,36145.8
25.16,36450
25.18,36891.7
25.2,36633.3
25.22,36229.2
25.24,36041.7
25.26,36162.5
25.28,35954.2
25.3,35937.5
25.32,35791.7
25.34,36225
25.36,35862.5
25.38,35975
25.4,36387.5
25.42,36554.2
25.44,37754.2
25.46,36487.5
25.48,36995.8
25.5,36666.7
25.52,37108.3
25.54,37475
25.56,37520.8
25.58,37625
25.6,36429.2
25.62,37050
25.64,36579.2
25.66,35912.5
25.68,35829.2
25.7,35833.3
25.72,35583.3
25.74,35162.5
25.76,34962.5
25.78,35245.8
25.8,35804.2
25.82,35937.5
25.84,35695.8
25.86,35091.7
25.88,35025
25.9,35416.7
25.92,35125
25.94,35075
25.96,34375
25.98,34983.3
26,35045.8
26.02,34595.8
26.04,35325
26.06,35687.5
26.08,35500
26.1,35825
26.12,35920.8
26.14,35304.2
26.16,36170.8
26.18,36083.3
26.2,37312.5
26.22,37604.2
26.24,38300
26.26,39600
26.28,40533.3
26.3,42162.5
26.32,43937.5
26.34,47229.2
26.36,50254.2
26.38,53291.7
26.4,57920.8
26.42,62133.3
26.44,68620.8
26.46,74629.2
26.48,79254.2
26.5,83254.2
26.52,83175
26.54,80208.3
26.56,73275
26.58,66733.3
26.6,60745.8
26.62,55162.5
26.64,49325
26.66,47000
26.68,45562.5
26.7,44720.8
26.72,42716.7
26.74,42037.5
26.76,41612.5
26.78,41600
26.8,41366.7
26.82,40520.8
26.84,40508.3
26.86,39616.7
26.88,39254.2
26.9,39770.8
26.92,38670.8
26.94,38445.8
26.96,38554.2
26.98,38608.3
27,37779.2
27.02,37662.5
27.04,37579.2
27.06,35954.2
27.08,36445.8
27.1,36004.2
27.12,36133.3
27.14,35470.8
27.16,36587.5
27.18,36000
27.2,35875
27.22,36220.8
27.24,36616.7
27.26,36575
27.28,37525
27.3,38770.8
27.32,38979.2
27.34,39495.8
27.36,40929.2
27.38,40512.5
27.4,40612.5
27.42,40300
27.44,41116.7
27.46,40604.2
27.48,39833.3
27.5,39716.7
27.52,38641.7
27.54,38645.8
27.56,37583.3
27.58,37591.7
27.6,37183.3
27.62,36387.5
27.64,36358.3
27.66,35883.3
27.68,35945.8
27.7,35854.2
27.72,34908.3
27.74,35108.3
27.76,34616.7
27.78,34904.2
27.8,34745.8
27.82,34637.5
27.84,34075
27.86,34641.7
27.88,33579.2
27.9,34383.3
27.92,33479.2
27.94,32975
27.96,32562.5
27.98,33037.5
28,32012.5
28.02,32558.3
28.04,32941.7
28.06,32495.8
28.08,32554.2
28.1,31704.2
28.12,32029.2
28.14,31933.3
28.16,31700
28.18,32095.8
28.2,31516.7
28.22,31733.3
28.24,31758.3
28.26,31570.8
28.28,31583.3
28.3,31058.3
28.32,31350
28.34,31237.5
28.36,31150
28.38,31858.3
28.4,30791.7
28.42,31454.2
28.44,31462.5
28.46,31166.7
28.48,30904.2
28.5,30683.3
28.52,31475
28.54,30533.3
28.56,31070.8
28.58,31220.8
28.6,30770.8
28.62,31762.5
28.64,31045.8
28.66,31087.5
28.68,31191.7
28.7,31012.5
28.72,31095.8
28.74,31804.2
28.76,30854.2
28.78,30075
28.8,30854.2
28.82,30729.2
28.84,30745.8
28.86,31141.7
28.88,30508.3
28.9,30116.7
28.92,30145.8
28.94,30491.7
28.96,30654.2
28.98,30800
29,30466.7
29.02,30370.8
29.04,30500
29.06,30683.3
29.08,30487.5
29.1,30020.8
29.12,30920.8
29.14,31075
29.16,30520.8
29.18,30733.3
29.2,30375
29.22,30291.7
29.24,30500
29.26,30450
29.28,29904.2
29.3,30837.5
29.32,30916.7
29.34,31429.2
29.36,31270.8
29.38,31991.7
29.4,31483.3
29.42,31866.7
29.44,31137.5
29.46,31241.7
29.48,31225
29.5,31016.7
29.52,30729.2
29.54,30866.7
29.56,31087.5
29.58,31629.2
29.6,31587.5
29.62,31075
29.64,31241.7
29.66,30766.7
29.68,31195.8
29.7,31058.3
29.72,31445.8
29.74,32066.7
29.76,31558.3
29.78,31058.3
29.8,30758.3
29.82,31583.3
29.84,31195.8
29.86,31350
29.88,30641.7
29.9,31504.2
29.92,31320.8
29.94,31783.3
29.96,31450
29.98,31595.8
30,31225
30.02,30866.7
30.04,31012.5
30.06,31416.7
30.08,31304.2
30.1,31112.5
30.12,31791.7
30.14,31291.7
30.16,31004.2
30.18,31604.2
30.2,30983.3
30.22,30875
30.24,30420.8
30.26,30912.5
30.28,30604.2
30.3,30325
30.32,30962.5
30.34,30470.8
30.36,30645.8
30.38,30500
30.4,31320.8
30.42,30700
30.44,30820.8
30.46,30662.5
30.48,30720.8
30.5,30533.3
30.52,30870.8
30.54,31170.8
30.56,30654.2
30.58,31179.2
30.6,31125
30.62,31775
30.64,32041.7
30.66,31433.3
30.68,32166.7
30.7,31958.3
30.72,32308.3
30.74,31891.7
30.76,31620.8
30.78,32391.7
30.8,32308.3
30.82,31791.7
30.84,31941.7
30.86,31737.5
30.88,31604.2
30.9,31437.5
30.92,31204.2
30.94,31125
30.96,30762.5
30.98,30925
31,30866.7
31.02,30258.3
31.04,30491.7
31.06,30833.3
31.08,31033.3
31.1,30666.7
31.12,30533.3
31.14,30650
31.16,29908.3
31.18,30195.8
31.2,30429.2
31.22,30391.7
31.24,30425
31.26,30029.2
31.28,29795.8
31.3,29558.3
31.32,29775
31.34,29516.7
31.36,30020.8
31.38,30583.3
31.4,29750
31.42,29720.8
31.44,29970.8
31.46,29666.7
31.48,29304.2
31.5,29400
31.52,29154.2
31.54,29083.3
31.56,29370.8
31.58,29400
31.6,29962.5
31.62,29645.8
31.64,29100
31.66,29241.7
31.68,29116.7
31.7,29212.5
31.72,29091.7
31.74,29625
31.76,29170.8
31.78,29254.2
31.8,29170.8
31.82,29116.7
31.84,29270.8
31.86,28512.5
31.88,29504.2
31.9,28866.7
31.92,28641.7
31.94,28541.7
31.96,29175
31.98,28891.7
32,28737.5
32.02,29229.2
32.04,28766.7
32.06,28800
32.08,28779.2
32.1,28783.3
32.12,29004.2
32.14,28791.7
32.16,29095.8
32.18,29466.7
32.2,29583.3
32.22,28600
32.24,29075
32.26,28837.5
32.28,29316.7
32.3,28737.5
32.32,29120.8
32.34,29475
32.36,28512.5
32.38,29083.3
32.4,28616.7
32.42,28529.2
32.44,29058.3
32.46,29166.7
32.48,29120.8
32.5,29600
32.52,28891.7
32.54,28970.8
32.56,29008.3
32.58,29079.2
32.6,28437.5
32.62,28645.8
32.64,28937.5
32.66,28658.3
32.68,29070.8
32.7,28708.3
32.72,28733.3
32.74,29425
32.76,29037.5
32.78,28895.8
32.8,28170.8
32.82,28958.3
32.84,29345.8
32.86,28587.5
32.88,29066.7
32.9,29600
32.92,29912.5
32.94,29470.8
32.96,30116.7
32.98,30962.5
33,30812.5
33.02,31075
33.04,31350
33.06,31691.7
33.08,32212.5
33.1,31841.7
33.12,32220.8
33.14,32108.3
33.16,32383.3
33.18,32141.7
33.2,32641.7
33.22,32145.8
33.24,32020.8
33.26,32645.8
33.28,32629.2
33.3,31358.3
33.32,31983.3
33.34,32200
33.36,31450
33.38,31316.7
33.4,30770.8
33.42,30712.5
33.44,30408.3
33.46,29975
33.48,29887.5
33.5,30008.3
33.52,29179.2
33.54,29162.5
33.56,29183.3
33.58,29745.8
33.6,28200
33.62,28075
33.64,28266.7
33.66,28154.2
33.68,28312.5
33.7,28216.7
33.72,27800
33.74,28445.8
33.76,28325
33.78,28004.2
33.8,28116.7
33.82,28329.2
33.84,28004.2
33.86,27629.2
33.88,28562.5
33.9,27508.3
33.92,28008.3
33.94,27670.8
33.96,27579.2
33.98,28041.7
34,28391.7
34.02,27891.7
34.04,29079.2
34.06,28070.8
34.08,28629.2
34.1,29062.5
34.12,29466.7
34.14,29058.3
34.16,29245.8
34.18,29900
34.2,29116.7
34.22,29079.2
34.24,29429.2
34.26,29608.3
34.28,29383.3
34.3,29791.7
34.32,29662.5
34.34,29554.2
34.36,29254.2
34.38,29245.8
34.4,28845.8
34.42,29333.3
34.44,29620.8
34.46,29695.8
34.48,29400
34.5,29625
34.52,28975
34.54,29712.5
34.56,29245.8
34.58,29091.7
34.6,29125
34.62,29408.3
34.64,28770.8
34.66,29287.5
34.68,28366.7
34.7,29070.8
34.72,29329.2
34.74,28625
34.76,28729.2
34.78,28537.5
34.8,28375
34.82,28733.3
34.84,28870.8
34.86,28233.3
34.88,28058.3
34.9,28412.5
34.92,28475
34.94,27795.8
34.96,27979.2
34.98,28058.3
35,28104.2
35.02,28687.5
35.04,28645.8
35.06,28079.2
35.08,28225
35.1,28925
35.12,28158.3
35.14,28250
35.16,28191.7
35.18,27754.2
35.2,28245.8
35.22,28137.5
35.24,28487.5
35.26,28708.3
35.28,29037.5
35.3,28991.7
35.32,29020.8
35.34,29254.2
35.36,29316.7
35.38,28954.2
35.4,29458.3
35.42,29666.7
35.44,30250
35.46,30766.7
35.48,31450
35.5,31679.2
35.52,32175
35.54,32041.7
35.56,32870.8
35.58,33033.3
35.6,32912.5
35.62,33275
35.64,32454.2
35.66,32829.2
35.68,32929.2
35.7,32533.3
35.72,32583.3
35.74,31987.5
35.76,32150
35.78,32566.7
35.8,31175
35.82,30608.3
35.84,31333.3
35.86,30875
35.88,30037.5
35.9,30450
35.92,30154.2
35.94,30554.2
35.96,30008.3
35.98,29579.2
36,29562.5
36.02,29491.7
36.04,28708.3
36.06,28945.8
36.08,29050
36.1,29425
36.12,28962.5
36.14,29104.2
36.16,29462.5
36.18,29475
36.2,29537.5
36.22,29216.7
36.24,29504.2
36.26,29900
36.28,29962.5
36.3,30616.7
36.32,30429.2
36.34,31466.7
36.36,31766.7
36.38,31720.8
36.4,32575
36.42,32775
36.44,32587.5
36.46,31691.7
36.48,31379.2
36.5,30866.7
36.52,30966.7
36.54,30795.8
36.56,30645.8
36.58,30762.5
36.6,30462.5
36.62,30683.3
36.64,29775
36.66,29958.3
36.68,29366.7
36.7,29562.5
36.72,30095.8
36.74,30275
36.76,30254.2
36.78,30033.3
36.8,30191.7
36.82,30275
36.84,30112.5
36.86,30495.8
36.88,29537.5
36.9,30341.7
36.92,29958.3
36.94,29879.2
36.96,30116.7
36.98,30658.3
37,29191.7
37.02,29416.7
37.04,28979.2
37.06,29808.3
37.08,28991.7
37.1,29108.3
37.12,28933.3
37.14,28908.3
37.16,28479.2
37.18,28441.7
37.2,28220.8
37.22,28779.2
37.24,28016.7
37.26,28308.3
37.28,28258.3
37.3,27491.7
37.32,27754.2
37.34,28091.7
37.36,27933.3
37.38,27854.2
37.4,27112.5
37.42,26754.2
37.44,26745.8
37.46,26766.7
37.48,26779.2
37.5,26425
37.52,26675
37.54,26954.2
37.56,26729.2
37.58,26537.5
37.6,26316.7
37.62,26437.5
37.64,26762.5
37.66,26325
37.68,26441.7
37.7,25958.3
37.72,26391.7
37.74,26345.8
37.76,26483.3
37.78,26041.7
37.8,26062.5
37.82,25575
37.84,25629.2
37.86,25995.8
37.88,25895.8
37.9,25654.2
37.92,25366.7
37.94,25150
37.96,25883.3
37.98,25175
38,25237.5
38.02,25087.5
38.04,25041.7
38.06,25020.8
38.08,25845.8
38.1,25304.2
38.12,24691.7
38.14,25229.2
38.16,24604.2
38.18,25512.5
38.2,24679.2
38.22,24729.2
38.24,24787.5
38.26,24691.7
38.28,24412.5
38.3,25133.3
38.32,24791.7
38.34,25183.3
38.36,24995.8
38.38,25050
38.4,24800
38.42,24975
38.44,24966.7
38.46,24779.2
38.48,24666.7
38.5,25537.5
38.52,25091.7
38.54,25629.2
38.56,24762.5
38.58,25362.5
38.6,24400
38.62,24570.8
38.64,25450
38.66,25208.3
38.68,25237.5
38.7,25087.5
38.72,24725
38.74,24879.2
38.76,25250
38.78,24595.8
38.8,25029.2
38.82,24545.8
38.84,24854.2
38.86,25000
38.88,24275
38.9,25041.7
38.92,24733.3
38.94,24441.7
38.96,24608.3
38.98,24533.3
39,24916.7
39.02,24687.5
39.04,25008.3
39.06,24500
39.08,24945.8
39.1,25491.7
39.12,25975
39.14,25416.7
39.16,25320.8
39.18,25379.2
39.2,25829.2
39.22,26416.7
39.24,26245.8
39.26,27179.2
39.28,27500
39.3,28120.8
39.32,27858.3
39.34,28479.2
39.36,28529.2
39.38,27920.8
39.4,27616.7
39.42,27808.3
39.44,27745.8
39.46,27375
39.48,26450
39.5,26025
39.52,25900
39.54,25912.5
39.56,25029.2
39.58,26008.3
39.6,25833.3
39.62,25754.2
39.64,25120.8
39.66,25258.3
39.68,25233.3
39.7,24858.3
39.72,25287.5
39.74,25375
39.76,25483.3
39.78,25083.3
39.8,25079.2
39.82,24858.3
39.84,24820.8
39.86,25025
39.88,24750
39.9,24762.5
39.92,24737.5
39.94,25104.2
39.96,25029.2
39.98,24841.7
40,25762.5
40.02,25233.3
40.04,26029.2
40.06,25925
40.08,25820.8
40.1,26408.3
40.12,26045.8
40.14,26133.3
40.16,26195.8
40.18,26254.2
40.2,26295.8
40.22,26091.7
40.24,25750
40.26,25750
40.28,26220.8
40.3,26029.2
40.32,25329.2
40.34,25237.5
40.36,25304.2
40.38,25104.2
40.4,25450
40.42,25229.2
40.44,25008.3
40.46,25229.2
40.48,25166.7
40.5,25208.3
40.52,25162.5
40.54,25454.2
40.56,25487.5
40.58,24941.7
40.6,24900
40.62,25333.3
40.64,24995.8
40.66,24983.3
40.68,25950
40.7,25887.5
40.72,25808.3
40.74,25700
40.76,26529.2
40.78,25533.3
40.8,26066.7
40.82,25987.5
40.84,25808.3
40.86,26041.7
40.88,26275
40.9,26391.7
40.92,26029.2
40.94,26575
40.96,25962.5
40.98,25537.5
41,25341.7
41.02,26491.7
41.04,26054.2
41.06,25441.7
41.08,25883.3
41.1,26162.5
41.12,25833.3
41.14,25716.7
41.16,25116.7
41.18,25087.5
41.2,25037.5
41.22,24979.2
41.24,25475
41.26,25204.2
41.28,25370.8
41.3,24854.2
41.32,25050
41.34,24425
41.36,25250
41.38,24825
41.4,24708.3
41.42,25200
41.44,25433.3
41.46,25037.5
41.48,25020.8
41.5,25150
41.52,25304.2
41.54,25295.8
41.56,25391.7
41.58,24766.7
41.6,25645.8
41.62,25800
41.64,25608.3
41.66,27262.5
41.68,26462.5
41.7,26879.2
41.72,26170.8
41.74,26441.7
41.76,26370.8
41.78,26404.2
41.8,26354.2
41.82,26195.8
41.84,26645.8
41.86,25762.5
41.88,25608.3
41.9,25912.5
41.92,25408.3
41.94,25708.3
41.96,25612.5
41.98,25016.7
42,25512.5
42.02,25187.5
42.04,25054.2
42.06,24537.5
42.08,25270.8
42.1,24991.7
42.12,24970.8
42.14,25625
42.16,25512.5
42.18,25545.8
42.2,25991.7
42.22,25995.8
42.24,26491.7
42.26,26175
42.28,26762.5
42.3,26716.7
42.32,27308.3
42.34,27212.5
42.36,26979.2
42.38,27258.3
42.4,26037.5
42.42,26504.2
42.44,25779.2
42.46,25433.3
42.48,26195.8
42.5,25720.8
42.52,25233.3
42.54,25050
42.56,25337.5
42.58,24841.7
42.6,24425
42.62,24541.7
42.64,24725
42.66,25037.5
42.68,24558.3
42.7,24779.2
42.72,24920.8
42.74,24279.2
42.76,24287.5
42.78,24304.2
42.8,24504.2
42.82,24612.5
42.84,24412.5
42.86,24887.5
42.88,24120.8
42.9,23958.3
42.92,24175
42.94,24033.3
42.96,24170.8
42.98,23962.5
43,24362.5
43.02,23950
43.04,25012.5
43.06,25045.8
43.08,24670.8
43.1,24391.7
43.12,24229.2
43.14,23925
43.16,24666.7
43.18,24162.5
43.2,23816.7
43.22,24220.8
43.24,24245.8
43.26,24312.5
43.28,24616.7
43.3,24416.7
43.32,24391.7
43.34,24195.8
43.36,24091.7
43.38,24525
43.4,24191.7
43.42,23825
43.44,24079.2
43.46,24116.7
43.48,24304.2
43.5,24287.5
43.52,24508.3
43.54,24775
43.56,24500
43.58,24745.8
43.6,24200
43.62,24220.8
43.64,23979.2
43.66,23870.8
43.68,25166.7
43.7,24170.8
43.72,24750
43.74,24712.5
43.76,23745.8
43.78,24270.8
43.8,24704.2
43.82,24033.3
43.84,24675
43.86,25158.3
43.88,24620.8
43.9,24404.2
43.92,24625
43.94,24704.2
43.96,24291.7
43.98,24520.8
44,24320.8
44.02,24583.3
44.04,24904.2
44.06,24500
44.08,24641.7
44.1,25154.2
44.12,24904.2
44.14,24100
44.16,24841.7
44.18,25008.3
44.2,25029.2
44.22,25062.5
44.24,24575
44.26,25379.2
44.28,25487.5
44.3,25191.7
44.32,25170.8
44.34,24754.2
44.36,24958.3
44.38,25487.5
44.4,25191.7
44.42,25012.5
44.44,25145.8
44.46,24991.7
44.48,24983.3
44.5,24554.2
44.52,25400
44.54,25279.2
44.56,25220.8
44.58,25470.8
44.6,25337.5
44.62,24883.3
44.64,25312.5
44.66,25595.8
44.68,25433.3
44.7,25004.2
44.72,25050
44.74,25220.8
44.76,25962.5
44.78,25654.2
44.8,25670.8
44.82,25487.5
44.84,25366.7
44.86,25820.8
44.88,25120.8
44.9,25666.7
44.92,24987.5
44.94,25425
44.96,25341.7
44.98,25312.5
45,25095.8
45.02,25150
45.04,25350
45.06,25116.7
45.08,25079.2
45.1,25416.7
45.12,25033.3
45.14,25083.3
45.16,24716.7
45.18,25125
45.2,24916.7
45.22,24837.5
45.24,25091.7
45.26,24612.5
45.28,25045.8
45.3,25537.5
45.32,24883.3
45.34,24775
45.36,25037.5
45.38,25054.2
45.4,25212.5
45.42,25304.2
45.44,25595.8
45.46,25591.7
45.48,25783.3
45.5,25433.3
45.52,25441.7
45.54,25441.7
45.56,25425
45.58,26175
45.6,25995.8
45.62,25962.5
45.64,26116.7
45.66,26183.3
45.68,26237.5
45.7,25450
45.72,25395.8
45.74,26595.8
45.76,25566.7
45.78,25737.5
45.8,25587.5
45.82,25570.8
45.84,25304.2
45.86,24766.7
45.88,24229.2
45.9,24220.8
45.92,24662.5
45.94,24495.8
45.96,24041.7
45.98,24458.3
46,24175
46.02,24245.8
46.04,23900
46.06,23470.8
46.08,24041.7
46.1,24229.2
46.12,24187.5
46.14,23791.7
46.16,23804.2
46.18,23725
46.2,23645.8
46.22,23691.7
46.24,23775
46.26,23491.7
46.28,23425
46.3,23375
46.32,23520.8
46.34,23108.3
46.36,23195.8
46.38,23004.2
46.4,23558.3
46.42,22812.5
46.44,23145.8
46.46,23020.8
46.48,23208.3
46.5,23779.2
46.52,22604.2
46.54,23045.8
46.56,23104.2
46.58,22970.8
46.6,23212.5
46.62,23012.5
46.64,22783.3
46.66,23100
46.68,22604.2
46.7,22487.5
46.72,23241.7
46.74,22845.8
46.76,23058.3
46.78,22908.3
46.8,23066.7
46.82,22516.7
46.84,23150
46.86,22991.7
46.88,22887.5
46.9,22966.7
46.92,23037.5
46.94,23437.5
46.96,23241.7
46.98,23208.3
47,22950
47.02,22987.5
47.04,23045.8
47.06,23237.5
47.08,23575
47.1,23300
47.12,22991.7
47.14,23212.5
47.16,22770.8
47.18,23379.2
47.2,23483.3
47.22,23100
47.24,22858.3
47.26,22683.3
47.28,23629.2
47.3,22533.3
47.32,23508.3
47.34,23016.7
47.36,22754.2
47.38,23250
47.4,23083.3
47.42,23133.3
47.44,23245.8
47.46,23020.8
47.48,22933.3
47.5,22833.3
47.52,22804.2
47.54,22545.8
47.56,22970.8
47.58,23000
47.6,23016.7
47.62,22637.5
47.64,22616.7
47.66,23145.8
47.68,23137.5
47.7,22925
47.72,22716.7
47.74,22575
47.76,22470.8
47.78,22987.5
47.8,21908.3
47.82,22616.7
47.84,23141.7
47.86,22870.8
47.88,23170.8
47.9,23050
47.92,23325
47.94,22841.7
47.96,22766.7
47.98,23450
48,22929.2
48.02,22887.5
48.04,23354.2
48.06,23000
48.08,22920.8
48.1,23250
48.12,22487.5
48.14,22458.3
48.16,22633.3
48.18,23008.3
48.2,22320.8
48.22,22362.5
48.24,22737.5
48.26,22891.7
48.28,22325
48.3,22683.3
48.32,23362.5
48.34,22283.3
48.36,22616.7
48.38,23104.2
48.4,22325
48.42,22370.8
48.44,23020.8
48.46,21708.3
48.48,22579.2
48.5,22045.8
48.52,22725
48.54,22695.8
48.56,22445.8
48.58,22950
48.6,22329.2
48.62,22804.2
48.64,23087.5
48.66,22670.8
48.68,22466.7
48.7,22870.8
48.72,22987.5
48.74,22879.2
48.76,22950
48.78,22908.3
48.8,22812.5
48.82,23083.3
48.84,22629.2
48.86,22941.7
48.88,22541.7
48.9,22845.8
48.92,22812.5
48.94,23641.7
48.96,23233.3
48.98,23912.5
49,23387.5
49.02,23779.2
49.04,23837.5
49.06,22483.3
49.08,22945.8
49.1,23141.7
49.12,23033.3
49.14,23020.8
49.16,22862.5
49.18,23025
49.2,22929.2
49.22,23366.7
49.24,23533.3
49.26,22675
49.28,23650
49.3,23912.5
49.32,23208.3
49.34,23679.2
49.36,23816.7
49.38,23533.3
49.4,23850
49.42,24266.7
49.44,23695.8
49.46,24858.3
49.48,24704.2
49.5,24754.2
49.52,24875
49.54,24966.7
49.56,24754.2
49.58,24612.5
49.6,24291.7
49.62,24287.5
49.64,24508.3
49.66,24812.5
49.68,24150
49.7,24841.7
49.72,24970.8
49.74,24425
49.76,24920.8
49.78,24891.7
49.8,24983.3
49.82,25504.2
49.84,25537.5
49.86,26183.3
49.88,25683.3
49.9,26808.3
49.92,27670.8
49.94,28691.7
49.96,28208.3
49.98,28537.5
50,29175
50.02,29887.5
50.04,28787.5
50.06,28183.3
50.08,28045.8
50.1,27270.8
50.12,27629.2
50.14,26854.2
50.16,26758.3
50.18,26262.5
50.2,25633.3
50.22,25083.3
50.24,24562.5
50.26,23708.3
50.28,24204.2
50.3,24145.8
50.32,23329.2
50.34,23379.2
50.36,23020.8
50.38,23316.7
50.4,23791.7
50.42,24129.2
50.44,23687.5
50.46,23708.3
50.48,24266.7
50.5,23966.7
50.52,23437.5
50.54,23833.3
50.56,24133.3
50.58,24675
50.6,23925
50.62,23779.2
50.64,24000
50.66,23500
50.68,24191.7
50.7,23425
50.72,23587.5
50.74,23433.3
50.76,23141.7
50.78,23920.8
50.8,23900
50.82,24075
50.84,23291.7
50.86,23120.8
50.88,23033.3
50.9,23058.3
50.92,23258.3
50.94,22066.7
50.96,22658.3
50.98,22712.5
51,22354.2
51.02,22433.3
51.04,22320.8
51.06,22483.3
51.08,22554.2
51.1,22729.2
51.12,22875
51.14,22158.3
51.16,22416.7
51.18,22691.7
51.2,21862.5
51.22,22200
51.24,22291.7
51.26,21720.8
51.28,21883.3
51.3,22316.7
51.32,22137.5
51.34,22012.5
51.36,22037.5
51.38,22475
51.4,21879.2
51.42,22391.7
51.44,22462.5
51.46,22020.8
51.48,22000
51.5,21962.5
51.52,22220.8
51.54,21700
51.56,22250
51.58,22541.7
51.6,22141.7
51.62,22320.8
51.64,22383.3
51.66,21875
51.68,22008.3
51.7,22175
51.72,22008.3
51.74,22200
51.76,21912.5
51.78,21962.5
51.8,21637.5
51.82,22012.5
51.84,21866.7
51.86,22200
51.88,22416.7
51.9,22066.7
51.92,21641.7
51.94,21987.5
51.96,21783.3
51.98,22104.2
52,21691.7
52.02,21562.5
52.04,21720.8
52.06,21841.7
52.08,22104.2
52.1,21925
52.12,21858.3
52.14,22045.8
52.16,22829.2
52.18,22220.8
52.2,21933.3
52.22,22683.3
52.24,21770.8
52.26,21529.2
52.28,22000
52.3,21558.3
52.32,21908.3
52.34,21858.3
52.36,21704.2
52.38,21966.7
52.4,21862.5
52.42,21675
52.44,22262.5
52.46,22229.2
52.48,22100
52.5,21783.3
52.52,22254.2
52.54,21966.7
52.56,21895.8
52.58,22291.7
52.6,22083.3
52.62,21900
52.64,22162.5
52.66,22775
52.68,22008.3
52.7,22008.3
52.72,22366.7
52.74,21683.3
52.76,22429.2
52.78,22158.3
52.8,22354.2
52.82,22112.5
52.84,22420.8
52.86,22208.3
52.88,22395.8
52.9,22108.3
52.92,22541.7
52.94,22025
52.96,22183.3
52.98,22354.2
53,21970.8
53.02,22100
53.04,22254.2
53.06,22729.2
53.08,22520.8
53.1,22266.7
53.12,22166.7
53.14,22200
53.16,22087.5
53.18,21975
53.2,22233.3
53.22,22162.5
53.24,22250
53.26,22275
53.28,22300
53.3,22441.7
53.32,22045.8
53.34,22108.3
53.36,21658.3
53.38,22725
53.4,21862.5
53.42,22187.5
53.44,22208.3
53.46,22425
53.48,22566.7
53.5,22116.7
53.52,22325
53.54,22341.7
53.56,22462.5
53.58,22120.8
53.6,21700
53.62,22825
53.64,22079.2
53.66,22333.3
53.68,22537.5
53.7,22770.8
53.72,22654.2
53.74,22458.3
53.76,22641.7
53.78,22604.2
53.8,22862.5
53.82,22662.5
53.84,22787.5
53.86,22900
53.88,23225
53.9,22712.5
53.92,23279.2
53.94,22829.2
53.96,23704.2
53.98,23575
54,23783.3
54.02,23708.3
54.04,23554.2
54.06,23620.8
54.08,24629.2
54.1,23929.2
54.12,24545.8
54.14,24375
54.16,24854.2
54.18,24745.8
54.2,24304.2
54.22,24837.5
54.24,24533.3
54.26,24750
54.28,24816.7
54.3,24416.7
54.32,24720.8
54.34,24687.5
54.36,25170.8
54.38,25079.2
54.4,24629.2
54.42,24345.8
54.44,24400
54.46,24566.7
54.48,24462.5
54.5,24079.2
54.52,24162.5
54.54,24291.7
54.56,23891.7
54.58,24262.5
54.6,24054.2
54.62,24662.5
54.64,24770.8
54.66,24716.7
54.68,24587.5
54.7,25312.5
54.72,24883.3
54.74,24762.5
54.76,23850
54.78,24529.2
54.8,25016.7
54.82,24879.2
54.84,24191.7
54.86,24766.7
54.88,24408.3
54.9,24304.2
54.92,24087.5
54.94,23941.7
54.96,23850
54.98,23854.2
55,23520.8
55.02,23358.3
55.04,23641.7
55.06,23841.7
55.08,23441.7
55.1,23550
55.12,23625
55.14,23787.5
55.16,23729.2
55.18,24175
55.2,24191.7
55.22,24008.3
55.24,24154.2
55.26,23429.2
55.28,23283.3
55.3,23345.8
55.32,22929.2
55.34,23175
55.36,23791.7
55.38,23620.8
55.4,22791.7
55.42,22520.8
55.44,22637.5
55.46,22333.3
55.48,22966.7
55.5,22820.8
55.52,23070.8
55.54,22787.5
55.56,22316.7
55.58,22545.8
55.6,22370.8
55.62,22200
55.64,22229.2
55.66,22675
55.68,22975
55.7,22466.7
55.72,22583.3
55.74,22591.7
55.76,22312.5
55.78,22120.8
55.8,22379.2
55.82,22762.5
55.84,22625
55.86,22545.8
55.88,22037.5
55.9,22595.8
55.92,22170.8
55.94,22416.7
55.96,22033.3
55.98,21962.5
56,22225
56.02,22291.7
56.04,22562.5
56.06,21475
56.08,22329.2
56.1,22466.7
56.12,22825
56.14,22395.8
56.16,22745.8
56.18,22108.3
56.2,22100
56.22,22150
56.24,22425
56.26,22029.2
56.28,22366.7
56.3,22333.3
56.32,22283.3
56.34,22337.5
56.36,22412.5
56.38,21812.5
56.4,22420.8
56.42,22279.2
56.44,22204.2
56.46,22466.7
56.48,21616.7
56.5,22312.5
56.52,22158.3
56.54,22008.3
56.56,22145.8
56.58,22275
56.6,22554.2
56.62,21808.3
56.64,22345.8
56.66,22454.2
56.68,21983.3
56.7,22295.8
56.72,22125
56.74,22675
56.76,21908.3
56.78,21820.8
56.8,22254.2
56.82,21933.3
56.84,22158.3
56.86,22870.8
56.88,22158.3
56.9,22154.2
56.92,22220.8
56.94,21862.5
56.96,21820.8
56.98,22225
57,21879.2
57.02,22412.5
57.04,22108.3
57.06,21995.8
57.08,22454.2
57.1,22004.2
57.12,22533.3
57.14,21950
57.16,22504.2
57.18,22279.2
57.2,22733.3
57.22,22095.8
57.24,22316.7
57.26,22391.7
57.28,22608.3
57.3,22466.7
57.32,22279.2
57.34,22366.7
57.36,22616.7
57.38,22300
57.4,22300
57.42,23204.2
57.44,22345.8
57.46,21866.7
57.48,22204.2
57.5,21983.3
57.52,22629.2
57.54,22333.3
57.56,22566.7
57.58,22037.5
57.6,22391.7
57.62,22333.3
57.64,22379.2
57.66,22187.5
57.68,22687.5
57.7,23008.3
57.72,22887.5
57.74,22483.3
57.76,21966.7
57.78,22241.7
57.8,22866.7
57.82,22641.7
57.84,22633.3
57.86,22425
57.88,22245.8
57.9,22529.2
57.92,22350
57.94,22579.2
57.96,22641.7
57.98,22666.7
58,22495.8
58.02,22466.7
58.04,22758.3
58.06,22604.2
58.08,22220.8
58.1,22575
58.12,22929.2
58.14,22625
58.16,22504.2
58.18,22745.8
58.2,22383.3
58.22,22508.3
58.24,22616.7
58.26,22804.2
58.28,22579.2
58.3,22400
58.32,22529.2
58.34,22745.8
58.36,23200
58.38,23025
58.4,22633.3
58.42,22825
58.44,22608.3
58.46,22945.8
58.48,23008.3
58.5,22775
58.52,22991.7
58.54,22558.3
58.56,23154.2
58.58,22637.5
58.6,23345.8
58.62,23216.7
58.64,22595.8
58.66,23129.2
58.68,22812.5
58.7,22929.2
58.72,22970.8
58.74,22958.3
58.76,22920.8
58.78,23195.8
58.8,22745.8
58.82,22487.5
58.84,22712.5
58.86,23083.3
58.88,22933.3
58.9,22558.3
58.92,22804.2
58.94,22716.7
58.96,23704.2
58.98,23208.3
59,22979.2
59.02,22941.7
59.04,23237.5
59.06,23083.3
59.08,23245.8
59.1,22958.3
59.12,23229.2
59.14,23754.2
59.16,22750
59.18,22837.5
59.2,22554.2
59.22,22841.7
59.24,22904.2
59.26,22437.5
59.28,23112.5
59.3,22216.7
59.32,22862.5
59.34,22912.5
59.36,23150
59.38,22800
59.4,23637.5
59.42,23333.3
59.44,23275
59.46,23241.7
59.48,23150
59.5,23016.7
59.52,23204.2
59.54,23912.5
59.56,24087.5
59.58,23508.3
59.6,23583.3
59.62,24550
59.64,24358.3
59.66,24137.5
59.68,24491.7
59.7,24937.5
59.72,25258.3
59.74,25858.3
59.76,26129.2
59.78,26420.8
59.8,26550
59.82,26841.7
59.84,26875
59.86,26166.7
59.88,25787.5
59.9,25862.5
59.92,25075
59.94,25391.7
59.96,25925
59.98,25412.5
60,25004.2
60.02,24558.3
60.04,24491.7
60.06,24470.8
60.08,24250
60.1,24400
60.12,23470.8
60.14,23595.8
60.16,23991.7
60.18,23166.7
60.2,23500
60.22,23729.2
60.24,23416.7
60.26,23900
60.28,22954.2
60.3,22925
60.32,23583.3
60.34,23233.3
60.36,23508.3
60.38,23429.2
60.4,23216.7
60.42,22758.3
60.44,22795.8
60.46,22925
60.48,22820.8
60.5,22337.5
60.52,23025
60.54,23120.8
60.56,22504.2
60.58,22833.3
60.6,22295.8
60.62,22841.7
60.64,22570.8
60.66,23120.8
60.68,23012.5
60.7,22708.3
60.72,22979.2
60.74,22391.7
60.76,22370.8
60.78,22537.5
60.8,22037.5
60.82,22520.8
60.84,22433.3
60.86,21533.3
60.88,21875
60.9,22337.5
60.92,21558.3
60.94,22491.7
60.96,22729.2
60.98,22291.7
61,22033.3
61.02,22583.3
61.04,22262.5
61.06,22108.3
61.08,22612.5
61.1,22245.8
61.12,22025
61.14,22654.2
61.16,22645.8
61.18,22816.7
61.2,23029.2
61.22,22429.2
61.24,22170.8
61.26,22304.2
61.28,22516.7
61.3,21875
61.32,22204.2
61.34,22408.3
61.36,21879.2
61.38,22329.2
61.4,22241.7
61.42,22341.7
61.44,22337.5
61.46,21766.7
61.48,22029.2
61.5,21616.7
61.52,21833.3
61.54,22091.7
61.56,21120.8
61.58,22075
61.6,21587.5
61.62,21762.5
61.64,21429.2
61.66,21500
61.68,21812.5
61.7,22495.8
61.72,22012.5
61.74,21325
61.76,21770.8
61.78,21945.8
61.8,21604.2
61.82,21670.8
61.84,21795.8
61.86,21633.3
61.88,21479.2
61.9,21812.5
61.92,21612.5
61.94,21729.2
61.96,22091.7
61.98,21641.7
62,21816.7
62.02,21983.3
62.04,22037.5
62.06,22062.5
62.08,21791.7
62.1,21737.5
62.12,22366.7
62.14,22100
62.16,21579.2
62.18,21975
62.2,21712.5
62.22,22416.7
62.24,22216.7
62.26,21433.3
62.28,22341.7
62.3,22558.3
62.32,22620.8
62.34,22275
62.36,22862.5
62.38,22870.8
62.4,23270.8
62.42,22800
62.44,22475
62.46,22887.5
62.48,22866.7
62.5,22633.3
62.52,22979.2
62.54,23425
62.56,23641.7
62.58,23325
62.6,23295.8
62.62,24158.3
62.64,24045.8
62.66,23216.7
62.68,23325
62.7,23141.7
62.72,23579.2
62.74,23279.2
62.76,23383.3
62.78,22716.7
62.8,22975
62.82,23604.2
62.84,22962.5
62.86,23087.5
62.88,22579.2
62.9,23170.8
62.92,23200
62.94,22575
62.96,22808.3
62.98,22316.7
63,22433.3
63.02,22637.5
63.04,22166.7
63.06,23062.5
63.08,22062.5
63.1,22904.2
63.12,22458.3
63.14,22520.8
63.16,22491.7
63.18,22300
63.2,22320.8
63.22,22687.5
63.24,22183.3
63.26,22845.8
63.28,21933.3
63.3,22129.2
63.32,22291.7
63.34,22212.5
63.36,22029.2
63.38,22941.7
63.4,22300
63.42,21875
63.44,22412.5
63.46,22366.7
63.48,22608.3
63.5,22620.8
63.52,22437.5
63.54,22645.8
63.56,22595.8
63.58,22066.7
63.6,22245.8
63.62,21795.8
63.64,22037.5
63.66,22195.8
63.68,22854.2
63.7,22650
63.72,22916.7
63.74,22708.3
63.76,23766.7
63.78,23066.7
63.8,23329.2
63.82,23425
63.84,23637.5
63.86,23812.5
63.88,24370.8
63.9,23891.7
63.92,24641.7
63.94,24125
63.96,24620.8
63.98,24195.8
64,24916.7
64.02,23904.2
64.04,23900
64.06,24670.8
64.08,24745.8
64.1,25166.7
64.12,24237.5
64.14,24745.8
64.16,24995.8
64.18,24400
64.2,24791.7
64.22,23704.2
64.24,24033.3
64.26,24766.7
64.28,23825
64.3,24275
64.32,24616.7
64.34,24250
64.36,23879.2
64.38,23591.7
64.4,23595.8
64.42,23675
64.44,23458.3
64.46,23158.3
64.48,23400
64.5,23041.7
64.52,22962.5
64.54,22804.2
64.56,23841.7
64.58,22950
64.6,23470.8
64.62,23104.2
64.64,23250
64.66,23070.8
64.68,23145.8
64.7,23454.2
64.72,23304.2
64.74,23066.7
64.76,22858.3
64.78,22679.2
64.8,22779.2
64.82,23183.3
64.84,23087.5
64.86,23462.5
64.88,22641.7
64.9,23329.2
64.92,23262.5
64.94,23158.3
64.96,23783.3
64.98,23241.7
65,23558.3
65.02,23691.7
65.04,23504.2
65.06,23441.7
65.08,23312.5
65.1,23054.2
65.12,23791.7
65.14,23254.2
65.16,23662.5
65.18,23179.2
65.2,23525
65.22,23133.3
65.24,23925
65.26,23700
65.28,23329.2
65.3,23583.3
65.32,23708.3
65.34,23529.2
65.36,23783.3
65.38,23758.3
65.4,23545.8
65.42,23925
65.44,23275
65.46,23287.5
65.48,23179.2
65.5,24141.7
65.52,23629.2
65.54,23654.2
65.56,23437.5
65.58,23612.5
65.6,23225
65.62,23804.2
65.64,23041.7
65.66,23979.2
65.68,23437.5
65.7,23287.5
65.72,23679.2
65.74,23050
65.76,22745.8
65.78,23500
65.8,22812.5
65.82,22245.8
65.84,23437.5
65.86,22504.2
65.88,23295.8
65.9,22412.5
65.92,22704.2
65.94,22416.7
65.96,22720.8
65.98,22491.7
66,22679.2
66.02,22612.5
66.04,22075
66.06,22108.3
66.08,22766.7
66.1,22104.2
66.12,22245.8
66.14,22120.8
66.16,22400
66.18,21933.3
66.2,22187.5
66.22,22033.3
66.24,21695.8
66.26,22033.3
66.28,22333.3
66.3,22241.7
66.32,22133.3
66.34,22066.7
66.36,22491.7
66.38,21512.5
66.4,21808.3
66.42,21454.2
66.44,21929.2
66.46,21920.8
66.48,21670.8
66.5,21766.7
66.52,21929.2
66.54,21520.8
66.56,21370.8
66.58,22400
66.6,22208.3
66.62,21637.5
66.64,21645.8
66.66,21375
66.68,21179.2
66.7,21458.3
66.72,21345.8
66.74,21033.3
66.76,21566.7
66.78,21425
66.8,21320.8
66.82,20958.3
66.84,21054.2
66.86,21308.3
66.88,21137.5
66.9,21445.8
66.92,21041.7
66.94,21787.5
66.96,20445.8
66.98,21404.2
67,21075
67.02,20966.7
67.04,20695.8
67.06,21345.8
67.08,21241.7
67.1,21262.5
67.12,20587.5
67.14,21054.2
67.16,21345.8
67.18,22162.5
67.2,21304.2
67.22,21370.8
67.24,21483.3
67.26,21258.3
67.28,21316.7
67.3,21183.3
67.32,21354.2
67.34,21241.7
67.36,22050
67.38,21312.5
67.4,22250
67.42,22170.8
67.44,21675
67.46,22200
67.48,22341.7
67.5,22979.2
67.52,22775
67.54,23170.8
67.56,22583.3
67.58,23450
67.6,22891.7
67.62,23183.3
67.64,23141.7
67.66,23554.2
67.68,22970.8
67.7,23108.3
67.72,23233.3
67.74,22995.8
67.76,23650
67.78,23208.3
67.8,23262.5
67.82,23625
67.84,23641.7
67.86,23537.5
67.88,23929.2
67.9,23512.5
67.92,24612.5
67.94,24158.3
67.96,24854.2
67.98,24945.8
68,25212.5
68.02,25212.5
68.04,24762.5
68.06,24575
68.08,25025
68.1,24054.2
68.12,24362.5
68.14,24458.3
68.16,24375
68.18,25087.5
68.2,24254.2
68.22,24175
68.24,24141.7
68.26,23295.8
68.28,23054.2
68.3,23350
68.32,23225
68.34,22791.7
68.36,22745.8
68.38,22466.7
68.4,22350
68.42,21812.5
68.44,21945.8
68.46,21733.3
68.48,21187.5
68.5,21016.7
68.52,20891.7
68.54,21220.8
68.56,21062.5
68.58,20625
68.6,21045.8
68.62,21258.3
68.64,20862.5
68.66,20637.5
68.68,21233.3
68.7,21058.3
68.72,21212.5
68.74,21075
68.76,20608.3
68.78,21275
68.8,20854.2
68.82,20641.7
68.84,20579.2
68.86,20758.3
68.88,20333.3
68.9,21054.2
68.92,20637.5
68.94,20637.5
68.96,20600
68.98,20254.2
69,20454.2
69.02,20525
69.04,20391.7
69.06,20487.5
69.08,21037.5
69.1,20612.5
69.12,20704.2
69.14,20891.7
69.16,20741.7
69.18,20716.7
69.2,20741.7
69.22,20545.8
69.24,20150
69.26,20254.2
69.28,20470.8
69.3,20191.7
69.32,20637.5
69.34,20762.5
69.36,20166.7
69.38,20391.7
69.4,20541.7
69.42,20762.5
69.44,20616.7
69.46,20416.7
69.48,20466.7
69.5,20583.3
69.52,20629.2
69.54,21083.3
69.56,20408.3
69.58,20554.2
69.6,20825
69.62,20520.8
69.64,20562.5
69.66,20379.2
69.68,20566.7
69.7,20295.8
69.72,20962.5
69.74,21008.3
69.76,21029.2
69.78,20345.8
69.8,20558.3
69.82,20608.3
69.84,20512.5
69.86,20370.8
69.88,20908.3
69.9,21145.8
69.92,20833.3
69.94,20645.8
69.96,21066.7
69.98,20633.3
70,20837.5
70.02,20495.8
70.04,20379.2
70.06,20579.2
70.08,20525
70.1,20712.5
70.12,20545.8
70.14,20508.3
70.16,21058.3
70.18,20083.3
70.2,20483.3
70.22,20500
70.24,20333.3
70.26,20300
70.28,20604.2
70.3,20300
70.32,19866.7
70.34,20033.3
70.36,20241.7
70.38,20562.5
70.4,20695.8
70.42,20725
70.44,19937.5
70.46,20795.8
70.48,20408.3
70.5,20070.8
70.52,20241.7
70.54,20395.8
70.56,20695.8
70.58,20304.2
70.6,20525
70.62,20954.2
70.64,20712.5
70.66,20375
70.68,20533.3
70.7,20720.8
70.72,20441.7
70.74,20304.2
70.76,20216.7
70.78,20391.7
70.8,20275
70.82,20729.2
70.84,20808.3
70.86,20362.5
70.88,20158.3
70.9,20850
70.92,20145.8
70.94,20454.2
70.96,19958.3
70.98,20295.8
71,20137.5
71.02,20529.2
71.04,20275
71.06,20366.7
71.08,20662.5
71.1,20520.8
71.12,20270.8
71.14,20000
71.16,19962.5
71.18,20625
71.2,21004.2
71.22,20750
71.24,20345.8
71.26,19916.7
71.28,20258.3
71.3,20175
71.32,20145.8
71.34,20562.5
71.36,20220.8
71.38,20337.5
71.4,20341.7
71.42,20387.5
71.44,20766.7
71.46,20741.7
71.48,20562.5
71.5,20800
71.52,20387.5
71.54,20675
71.56,20595.8
71.58,20545.8
71.6,20054.2
71.62,20554.2
71.64,20650
71.66,20641.7
71.68,20404.2
71.7,20479.2
71.72,20262.5
71.74,20683.3
71.76,20216.7
71.78,20425
71.8,20454.2
71.82,21112.5
71.84,20225
71.86,21050
71.88,20870.8
71.9,20629.2
71.92,20608.3
71.94,20641.7
71.96,20708.3
71.98,20370.8
72,20566.7
72.02,20375
72.04,21087.5
72.06,20508.3
72.08,20841.7
72.1,20816.7
72.12,20733.3
72.14,20745.8
72.16,21150
72.18,21704.2
72.2,20916.7
72.22,20783.3
72.24,21208.3
72.26,20862.5
72.28,21029.2
72.3,20875
72.32,20995.8
72.34,20916.7
72.36,20712.5
72.38,21116.7
72.4,20704.2
72.42,21108.3
72.44,21191.7
72.46,20312.5
72.48,21020.8
72.5,20816.7
72.52,20929.2
72.54,20658.3
72.56,20900
72.58,21120.8
72.6,21137.5
72.62,20870.8
72.64,20866.7
72.66,21458.3
72.68,21125
72.7,20779.2
72.72,20462.5
72.74,20825
72.76,20437.5
72.78,20962.5
72.8,21258.3
72.82,20879.2
72.84,21200
72.86,21187.5
72.88,20504.2
72.9,20529.2
72.92,20675
72.94,20979.2
72.96,21254.2
72.98,20316.7
73,20741.7
73.02,20404.2
73.04,20608.3
73.06,20437.5
73.08,20800
73.1,20804.2
73.12,21370.8
73.14,20870.8
73.16,20941.7
73.18,21104.2
73.2,20916.7
73.22,20912.5
73.24,21308.3
73.26,21783.3
73.28,21279.2
73.3,21104.2
73.32,21633.3
73.34,21879.2
73.36,21358.3
73.38,21275
73.4,21350
73.42,21033.3
73.44,20829.2
73.46,21300
73.48,21029.2
73.5,21150
73.52,20970.8
73.54,20954.2
73.56,20554.2
73.58,20820.8
73.6,20325
73.62,21212.5
73.64,20725
73.66,20204.2
73.68,20533.3
73.7,20637.5
73.72,20862.5
73.74,20595.8
73.76,20233.3
73.78,20804.2
73.8,20370.8
73.82,20350
73.84,20358.3
73.86,20429.2
73.88,20333.3
73.9,20141.7
73.92,20050
73.94,20475
73.96,20095.8
73.98,20262.5
74,20387.5
74.02,20283.3
74.04,20391.7
74.06,20420.8
74.08,20420.8
74.1,20579.2
74.12,20420.8
74.14,20308.3
74.16,19666.7
74.18,20529.2
74.2,20800
74.22,20737.5
74.24,19945.8
74.26,20283.3
74.28,20383.3
74.3,20695.8
74.32,20166.7
74.34,19887.5
74.36,19479.2
74.38,20166.7
74.4,20245.8
74.42,20191.7
74.44,19929.2
74.46,20012.5
74.48,20129.2
74.5,20275
74.52,19987.5
74.54,20170.8
74.56,20070.8
74.58,20316.7
74.6,20491.7
74.62,20312.5
74.64,20191.7
74.66,20454.2
74.68,20541.7
74.7,20233.3
74.72,20295.8
74.74,20325
74.76,20316.7
74.78,20545.8
74.8,20012.5
74.82,20475
74.84,20566.7
74.86,20587.5
74.88,20650
74.9,20316.7
74.92,20958.3
74.94,20579.2
74.96,20687.5
74.98,20533.3
75,20920.8
75.02,20304.2
75.04,20945.8
75.06,20458.3
75.08,20391.7
75.1,20275
75.12,20562.5
75.14,20520.8
75.16,20154.2
75.18,20600
75.2,20837.5
75.22,20804.2
75.24,20816.7
75.26,20962.5
75.28,20808.3
75.3,20591.7
75.32,20775
75.34,21204.2
75.36,20820.8
75.38,21112.5
75.4,21320.8
75.42,21116.7
75.44,21287.5
75.46,21250
75.48,22000
75.5,21891.7
75.52,21487.5
75.54,21820.8
75.56,21525
75.58,21679.2
75.6,20795.8
75.62,21404.2
75.64,21437.5
75.66,20604.2
75.68,21150
75.7,20908.3
75.72,21216.7
75.74,21066.7
75.76,20920.8
75.78,21104.2
75.8,20595.8
75.82,20433.3
75.84,20762.5
75.86,20370.8
75.88,21333.3
75.9,20433.3
75.92,19975
75.94,20166.7
75.96,20100
75.98,20333.3
76,19991.7
76.02,20037.5
76.04,20183.3
76.06,19858.3
76.08,20620.8
76.1,19933.3
76.12,20062.5
76.14,19704.2
76.16,20708.3
76.18,20250
76.2,19795.8
76.22,19812.5
76.24,19791.7
76.26,19783.3
76.28,20087.5
76.3,20116.7
76.32,20050
76.34,20100
76.36,19487.5
76.38,19795.8
76.4,20091.7
76.42,19358.3
76.44,19437.5
76.46,19812.5
76.48,19541.7
76.5,19862.5
76.52,19512.5
76.54,19820.8
76.56,19529.2
76.58,19791.7
76.6,19408.3
76.62,19991.7
76.64,19970.8
76.66,19658.3
76.68,19570.8
76.7,19616.7
76.72,19566.7
76.74,19733.3
76.76,19825
76.78,19754.2
76.8,19683.3
76.82,20479.2
76.84,20091.7
76.86,19833.3
76.88,19987.5
76.9,20120.8
76.92,20025
76.94,19337.5
76.96,19404.2
76.98,20058.3
77,20337.5
77.02,19108.3
77.04,19558.3
77.06,19770.8
77.08,19670.8
77.1,19737.5
77.12,20345.8
77.14,19958.3
77.16,19720.8
77.18,19970.8
77.2,20179.2
77.22,19495.8
77.24,19858.3
77.26,19462.5
77.28,20050
77.3,20266.7
77.32,19858.3
77.34,20120.8
77.36,19812.5
77.38,20441.7
77.4,20087.5
77.42,20308.3
77.44,20141.7
77.46,20012.5
77.48,20320.8
77.5,19750
77.52,19795.8
77.54,19933.3
77.56,19829.2
77.58,20245.8
77.6,20287.5
77.62,19612.5
77.64,19270.8
77.66,19829.2
77.68,20008.3
77.7,19800
77.72,19708.3
77.74,20104.2
77.76,20429.2
77.78,19720.8
77.8,20166.7
77.82,20050
77.84,19870.8
77.86,19391.7
77.88,19941.7
77.9,19400
77.92,19658.3
77.94,19633.3
77.96,19720.8
77.98,19916.7
78,19641.7
78.02,19595.8
78.04,19329.2
78.06,19600
78.08,19558.3
78.1,19604.2
78.12,19320.8
78.14,19466.7
78.16,19487.5
78.18,19258.3
78.2,19337.5
78.22,19737.5
78.24,19604.2
78.26,19625
78.28,19316.7
78.3,19095.8
78.32,19604.2
78.34,19750
78.36,20062.5
78.38,19429.2
78.4,19841.7
78.42,19916.7
78.44,19870.8
78.46,19808.3
78.48,18975
78.5,19104.2
78.52,19600
78.54,19558.3
78.56,19383.3
78.58,19404.2
78.6,19804.2
78.62,19458.3
78.64,19487.5
78.66,19120.8
78.68,19625
78.7,19383.3
78.72,19541.7
78.74,19362.5
78.76,19075
78.78,19625
78.8,19608.3
78.82,19545.8
78.84,19358.3
78.86,19270.8
78.88,19041.7
78.9,19066.7
78.92,18770.8
78.94,19020.8
78.96,19195.8
78.98,19608.3
79,19300
79.02,19254.2
79.04,19408.3
79.06,19533.3
79.08,19358.3
79.1,19491.7
79.12,19516.7
79.14,19229.2
79.16,19316.7
79.18,19716.7
79.2,19208.3
79.22,19412.5
79.24,19287.5
79.26,19683.3
79.28,19400
79.3,19220.8
79.32,19220.8
79.34,18925
79.36,19233.3
79.38,19466.7
79.4,19641.7
79.42,19729.2
79.44,19541.7
79.46,19729.2
79.48,19720.8
79.5,19300
79.52,20029.2
79.54,20075
79.56,19729.2
79.58,19329.2
79.6,19600
79.62,19995.8
79.64,19170.8
79.66,20254.2
79.68,20487.5
79.7,20104.2
79.72,20145.8
79.74,20554.2
79.76,20529.2
79.78,20366.7
79.8,20050
79.82,20508.3
79.84,20079.2
79.86,20395.8
79.88,19987.5
79.9,20512.5
79.92,20279.2
79.94,20037.5
79.96,20550
79.98,19720.8
80,20204.2

